0.0,0.00047239,0.087792,0.99186,45.825,0.57839,2.5063,0.41775,1.3104,0.66568,61.792,1.9761,0.00032607,0.00055339,0.00077639,0.00063468,0.00049753
0.0005,0.00039577,0.082075,1.0205,46.788,0.57659,2.4796,0.4025,1.2608,0.69239,61.39,1.9818,0.00084442,0.00017914,0.00076535,0.00097743,0.00052488
0.001,0.00048731,0.085888,1.0395,48.633,0.58343,2.4701,0.38914,1.2989,0.71718,62.723,2.0562,0.00056145,0.00098888,0.00076396,0.0007157,6.7228e-05
0.0015,0.00013892,0.083979,1.0891,50.268,0.5905,2.4281,0.39293,1.3314,0.71528,65.97,2.1287,0.00069004,0.00065624,0.00058417,0.00058963,0.00024258
0.002,0.00031849,0.082073,1.0739,46.661,0.57727,2.4357,0.39863,1.318,0.66187,61.636,2.0867,0.00083804,2.6939e-05,2.7247e-05,0.00091755,0.0007125
0.0025,0.000969,0.083971,1.0796,46.397,0.57278,2.5445,0.39864,1.3333,0.66377,59.816,2.102,0.00021894,0.00058036,0.00094347,0.00018757,0.00025267
0.003,0.00060987,0.082063,1.0891,47.563,0.54619,2.4949,0.40626,1.3371,0.66759,60.596,2.0562,0.0002383,0.00014958,0.0009056,0.00039316,2.2698e-05
0.0035,0.00056124,0.085876,1.1464,51.382,0.52521,2.6799,0.40815,1.3447,0.67904,67.656,2.0981,0.00025326,0.0008419,0.00094077,0.00078936,0.00063629
0.004,0.00039787,0.082057,1.0586,48.313,0.50793,2.451,0.40816,1.2913,0.63326,64.6,1.9379,0.00024588,0.00026833,0.00073071,0.00089597,0.00040639
0.0045,0.00036825,0.078244,1.0395,47.166,0.49458,2.4243,0.42535,1.2837,0.63135,61.058,1.9341,7.7136e-05,0.00020252,0.00037671,0.00076243,0.00056334
0.005,0.00084389,0.080148,1.0033,48.948,0.43354,2.2278,0.42918,1.2226,0.57604,61.695,1.8712,0.00077084,3.2603e-05,7.258e-05,0.00048779,4.1247e-05
0.0055,0.00050624,0.078236,0.99947,50.783,0.49244,2.4205,0.43108,1.2932,0.61228,66.971,1.9856,0.00021201,0.00071404,6.3699e-06,0.00083464,0.00046575
0.006,0.0007011,0.080138,1.0109,49.73,0.49323,2.39,0.45397,1.2894,0.58939,67.438,1.9761,0.00016368,0.000239,0.00021364,0.00090133,0.00091488
0.0065,0.00084652,0.085866,1.0376,47.887,0.5224,2.3919,0.44827,1.3085,0.59702,63.059,1.9799,0.00072256,0.00015426,0.00032126,0.00061077,0.00092673
0.007,0.00079972,0.093498,1.0224,48.772,0.52554,2.3537,0.45401,1.2665,0.58557,63.28,1.915,0.00011577,0.00041498,0.00049344,0.00089974,0.00073476
0.0075,0.00044815,0.087781,0.99569,52.776,0.53833,2.4987,0.48451,1.2436,0.5913,69.449,1.9112,0.00094302,0.00080474,2.0347e-05,0.00014516,3.5404e-05
0.008,0.00066249,0.10304,0.93083,50.817,0.53003,2.6074,0.46545,1.236,0.55506,68.499,1.9112,0.0009054,0.00045415,0.00074307,0.00087387,0.00053834
0.0085,0.00062017,0.10304,0.88314,48.156,0.54147,2.5845,0.43493,1.236,0.54171,63.717,1.8998,2.078e-05,0.00087232,0.00083496,0.00027783,0.00059206
0.009,0.00024056,0.10304,0.95373,48.713,0.56638,2.5044,0.4273,1.2494,0.55125,63.694,1.999,7.959e-05,0.0003786,0.0006372,0.00096643,0.00026405
0.0095,0.00088351,0.10495,1.0014,53.323,0.57457,2.6875,0.39486,1.3066,0.56269,70.295,2.1058,0.0009137,0.00053123,3.45e-05,0.00043877,0.00016186
0.01,0.0002275,0.10495,1.0834,50.928,0.62989,2.8268,0.40058,1.4153,0.62181,68.907,2.2565,0.00087093,0.00061506,0.00016945,0.00075194,0.00099898
0.0105,4.6909e-05,0.11258,1.051,48.862,0.57985,2.6303,0.39866,1.3657,0.55315,64.215,2.121,0.0005139,0.00055282,8.8424e-05,8.3916e-05,7.441e-05
0.011,0.00025975,0.1145,1.0872,46.97,0.60644,2.5235,0.4044,1.3962,0.57604,60.672,2.1535,4.9262e-05,0.00093299,0.0006798,0.00018872,0.00085744
0.0115,0.00040346,0.11831,1.0472,50.037,0.57659,2.615,0.38721,1.3276,0.54934,65.256,2.0924,0.00054808,0.00096841,0.00029995,0.00013494,0.00011728
0.012,0.00073566,0.11449,1.0777,49.707,0.57413,2.5483,0.38718,1.3714,0.60847,65.563,2.2107,0.00052889,0.0002883,0.00029915,0.00017498,0.00025764
0.0125,0.00092397,0.11258,1.0586,46.712,0.57974,2.5311,0.33189,1.3199,0.57223,61.907,2.1039,0.00058694,0.00068559,0.00082155,0.00040592,0.00056399
0.013,0.00054571,0.099228,1.0911,47.794,0.5702,2.533,0.38722,1.2761,0.6161,61.277,2.1058,0.00085556,0.00068721,0.00022653,0.00049207,0.00033514
0.0135,0.00030134,0.091596,1.1025,49.669,0.54608,2.5712,0.43492,1.1998,0.58558,62.753,1.9894,0.00081806,8.769e-05,0.00040942,0.00027264,0.00026087
0.014,0.00058864,0.093502,1.173,50.491,0.55987,2.6398,0.4578,1.297,0.65043,66.153,2.0829,0.00096543,0.00073898,3.4616e-05,0.00023327,0.00030584
0.0145,9.626e-05,0.095413,1.1502,47.029,0.59623,2.4968,0.47687,1.3447,0.67713,62.221,2.121,0.00045042,0.00075048,0.00073651,0.0006482,0.00085829
0.015,0.00043513,0.089695,1.1387,46.665,0.61407,2.5197,0.46161,1.3657,0.6676,60.115,2.1535,0.00015879,0.0005643,8.8935e-05,0.00081985,0.00035604
0.0155,0.00050894,0.083971,1.1082,47.963,0.58983,2.5521,0.46351,1.3485,0.64662,60.949,2.1001,0.00085336,0.00011309,0.00064245,0.00011519,9.8437e-05
0.016,0.00032993,0.078246,1.0682,51.697,0.55247,2.7867,0.48828,1.318,0.63136,67.316,2.0753,0.00055348,0.00091915,0.00080994,0.00011391,6.1555e-05
0.0165,0.00081853,0.0668,1.051,48.77,0.55382,2.7104,0.48256,1.3543,0.63708,64.306,2.0905,0.00038538,0.00035641,0.00011651,0.00016592,0.00060445
0.017,0.0003345,0.064895,0.98233,47.286,0.56066,2.7715,0.52074,1.2932,0.5913,61.397,1.9551,0.00059239,0.00082179,0.00076888,0.00085253,0.0005334
0.0175,0.00025952,0.064893,0.98807,49.291,0.56066,2.5407,0.53409,1.3104,0.59321,62.482,1.9608,0.00042549,0.00093804,0.00064677,0.00032337,0.00027757
0.018,0.00042244,0.062983,0.98234,50.659,0.5905,2.5388,0.51501,1.3619,0.60846,67.556,2.0047,6.4822e-05,0.00089292,0.0009353,0.00094544,0.00036878
0.0185,0.00085876,0.066798,1.0185,49.505,0.62786,2.5178,0.49402,1.4286,0.63517,67.616,2.1134,0.00087674,0.00080768,0.00037335,0.00039423,0.00095079
0.019,0.00060687,0.0668,0.92511,48.272,0.6153,2.6379,0.49211,1.3486,0.60847,63.328,2.018,0.00022743,0.00013279,0.00042484,0.00037671,0.00058225
0.0195,0.00041584,0.066798,0.9785,48.747,0.61149,2.6227,0.4902,1.3466,0.60847,63.164,2.0295,0.00076136,0.00034661,0.00026733,0.00015133,0.00094671
0.02,0.0006692,0.072516,0.90219,52.73,0.55168,2.781,0.55886,1.2532,0.56651,69.92,1.8464,0.00073178,0.00094774,0.00024984,0.00033231,0.0009719
0.0205,0.00071587,0.072516,0.98426,50.703,0.58681,2.7314,0.6466,1.3734,0.62945,69.016,2.0314,0.000342,0.00029,0.00017074,6.1767e-05,5.3244e-06
0.021,0.00095108,0.076335,0.96898,48.049,0.59174,2.5044,0.59892,1.3524,0.61419,64.11,1.957,0.00018322,0.00098454,0.0008903,0.00052714,0.00026813
0.0215,9.8873e-05,0.078246,0.98421,48.189,0.57704,2.4243,0.61992,1.3371,0.61038,63.73,1.9284,0.00050469,0.00034287,0.00096481,0.00076699,0.0003663
0.022,0.00057268,0.078244,0.98423,52.818,0.55999,2.5712,0.54361,1.3104,0.59321,70.145,1.8788,0.00022014,4.4698e-05,0.00077221,0.00012986,0.00086464
0.0225,0.00072412,0.074434,1.0433,49.887,0.60195,2.636,0.51881,1.4248,0.67141,68.56,2.0638,0.00051467,0.00018906,0.00025082,0.00081829,0.00092637
0.023,0.00045192,0.078248,1.07,48.164,0.57974,2.5635,0.49973,1.442,0.68094,64.474,2.1287,0.00018692,0.00013714,0.00015487,0.00063508,0.00028202
0.0235,0.00020448,0.078246,1.0243,46.199,0.54933,2.3957,0.47685,1.4229,0.70002,61.25,2.102,0.00016727,0.00032127,0.00097591,0.00021656,0.00044632
0.024,0.00020885,0.076337,1.0147,49.236,0.51747,2.4014,0.44824,1.3752,0.67331,65.654,2.018,0.00013498,0.00013415,0.00036964,0.00053396,0.00028107
0.0245,4.5502e-05,0.076339,0.93084,48.786,0.49907,2.4548,0.45586,1.297,0.68094,66.233,1.9169,0.00014311,0.00076719,0.00077,0.00037529,0.00046391
0.025,0.00025855,0.074434,0.94423,45.816,0.50244,2.2793,0.38912,1.2875,0.68095,62.412,1.9456,3.2201e-05,0.00056098,0.00015494,0.00019816,0.00093213
0.0255,0.0001982,0.072534,0.87362,46.848,0.47618,2.348,0.33001,1.1979,0.65042,62.013,1.8159,0.00026673,0.00064886,0.00020273,0.00028339,0.00047075
0.026,0.00081498,0.070627,0.92322,48.534,0.47248,2.3938,0.33002,1.2284,0.65233,64.184,1.8674,0.00054183,0.00056248,0.0001632,0.00070025,0.00027206
0.0265,0.00045774,0.07444,0.89652,50.058,0.46597,2.5101,0.32619,1.2341,0.65614,67.415,1.9036,0.00076691,0.00096719,0.00010734,0.00012853,0.00018625
0.027,0.00043519,0.080166,0.94036,46.781,0.53003,2.3442,0.38342,1.3333,0.68666,62.891,2.0486,0.0005734,0.00089664,0.00024666,0.00037573,0.00052935
0.0275,2.0605e-05,0.080168,0.92131,46.878,0.50153,2.4243,0.4025,1.2665,0.63135,60.739,1.9494,0.00022036,1.631e-06,0.00030286,0.00060223,0.00090977
0.028,0.00044367,0.082077,0.8927,48.532,0.54922,2.3499,0.41204,1.2684,0.60846,61.124,1.9055,8.0215e-05,0.00081596,0.00050884,0.00055843,0.00099354
0.0285,9.1726e-05,0.08017,0.88887,52.118,0.54417,2.6513,0.39106,1.2436,0.58748,67.833,1.8406,0.00041879,0.00051598,0.00098748,0.00019529,0.00098411
0.029,0.00076529,0.082084,0.9423,48.763,0.5748,2.6952,0.39677,1.3543,0.62182,64.569,1.9723,0.00070011,0.00093232,0.00054159,0.00089662,0.00015201
0.0295,0.0001176,0.083985,0.94035,47.517,0.54687,2.6494,0.38916,1.318,0.55315,61.336,1.9131,0.00045066,0.00024943,0.00057475,0.00040832,0.00099925
0.03,0.0007919,0.085888,0.92888,49.337,0.55303,2.5349,0.38535,1.3142,0.55887,62.099,1.8654,0.00035212,0.00054355,0.00053072,0.00070983,0.0009094
0.0305,0.00076821,0.083977,0.98421,50.92,0.57413,2.5502,0.35862,1.3314,0.56459,66.765,1.8845,0.00082553,0.0001067,7.4772e-05,0.00065712,8.9845e-05
0.031,0.00089689,0.080158,0.98038,49.942,0.60835,2.6856,0.34908,1.3829,0.6447,66.849,1.9742,0.00068707,0.00095496,0.00061195,0.00053815,0.00041334
0.0315,0.00027611,0.072528,1.0452,48.004,0.63135,2.7448,0.35482,1.4286,0.6714,62.712,2.0676,0.0009306,0.00038378,0.00070075,0.00029199,0.00084952
0.032,0.00019169,0.0668,1.0548,48.629,0.55966,2.6494,0.33764,1.4058,0.73054,63.837,2.0619,0.00033158,6.0791e-05,0.00031115,0.00078792,0.00064544
0.0325,0.00016926,0.072518,1.0262,52.379,0.56145,2.7696,0.3872,1.3791,0.73626,70.204,2.0066,0.00048987,0.00081256,0.00012302,0.0005631,0.00045526
0.033,0.00043556,0.076331,0.99377,50.041,0.49279,2.8058,0.44441,1.3085,0.72482,69.372,1.9227,0.00088418,0.00047558,0.00017846,0.00059795,9.563e-05
0.0335,0.0001893,0.083958,1.03,47.744,0.50367,2.617,0.45012,1.3467,0.75915,64.283,1.9856,0.00055415,0.00024336,0.00029891,0.00075012,0.0006001
0.034,0.00011231,0.076327,0.98041,48.034,0.49458,2.4663,0.45967,1.2436,0.74389,63.644,1.9017,0.0002213,0.00080094,0.00096385,0.00091181,0.00021593
0.0345,0.00061177,0.07824,0.99187,52.349,0.50658,2.596,0.44441,1.2761,0.74771,70.366,1.9589,2.2944e-05,0.00078821,0.00031872,0.00047692,0.00084581
0.035,0.00050951,0.076335,1.0014,49.608,0.51107,2.6875,0.42723,1.2894,0.73626,68.619,2.0123,0.00098264,0.00075273,0.00021853,0.00094455,0.00039252
0.0355,0.00041915,0.076333,1.0204,47.7,0.51028,2.5941,0.43679,1.3504,0.74007,64.258,2.1134,0.00042432,0.00053101,0.00057818,4.441e-05,0.00090421
0.036,0.00016681,0.083954,1.009,45.673,0.47662,2.493,0.47685,1.318,0.71337,60.369,2.0962,0.00014629,0.00028852,0.00050515,0.00034572,0.0007237
0.0365,0.00080642,0.0973,0.98805,49.037,0.51802,2.575,0.4368,1.3142,0.71147,64.495,2.0695,0.00061413,0.0003673,0.00025634,0.00023561,0.00055804
0.037,0.00043316,0.10303,0.90411,48.469,0.50904,2.5407,0.40057,1.2494,0.61037,64.817,1.9436,0.00090051,0.00020542,0.00026172,0.0004883,0.00016347
0.0375,0.00029116,0.11066,0.93274,45.413,0.49076,2.3614,0.3529,1.3066,0.618,61.416,2.0199,0.00056795,0.00049816,0.00033464,0.00083942,0.00031768
0.038,0.00012425,0.10684,0.95943,46.329,0.51242,2.3785,0.30142,1.2913,0.59511,61.061,1.9971,0.00077079,0.00076213,0.00016998,0.00015464,0.00024151
0.0385,0.00096937,0.10112,0.93842,48.482,0.5224,2.3251,0.29953,1.2741,0.58557,62.578,1.9932,0.00086791,0.00044139,0.00078845,0.00026792,0.00047547
0.039,0.00087564,0.10683,0.97087,49.932,0.54989,2.3003,0.33003,1.3027,0.56459,66.151,2.0257,0.0002101,0.00066534,0.00041603,0.00039979,0.00035915
0.0395,0.00035829,0.10302,1.0224,46.478,0.57278,2.205,0.33002,1.3428,0.62181,61.878,2.1077,0.00091418,8.9167e-05,0.00054492,5.8342e-05,0.00086868
0.04,0.00054767,0.10493,1.0872,46.527,0.58097,2.2412,0.33957,1.3886,0.67331,60.102,2.1973,0.00017784,0.00086896,1.715e-05,0.00073305,0.0003119
0.0405,0.00068149,0.10874,1.0815,47.225,0.58816,2.2107,0.36435,1.3714,0.68857,60.915,2.1725,0.0009386,0.00022283,0.00052113,7.4853e-05,0.0001307
0.041,7.2349e-05,0.11065,1.0624,51.422,0.60532,2.2984,0.37959,1.3161,0.65806,68.346,2.1268,0.0008609,0.00066912,3.5041e-05,6.9098e-05,0.00081531
0.0415,6.3964e-06,0.099214,0.99378,48.137,0.56201,2.1973,0.38529,1.2474,0.61037,65.334,1.9818,0.00022145,0.00080745,0.00092528,0.00052028,0.00045187
0.042,0.00012968,0.095397,1.0472,46.905,0.58502,2.3747,0.40818,1.2971,0.65425,61.769,2.0924,0.00029279,0.00030952,0.00026717,0.00088637,0.00014437
0.0425,0.00091905,0.082051,1.0281,48.974,0.60397,2.3614,0.43298,1.2494,0.63326,62.669,2.0753,0.00011816,0.00018674,0.00085927,0.00067196,0.00061333
0.043,0.00081889,0.078248,1.0491,50.321,0.62865,2.5502,0.40054,1.3008,0.66568,67.173,2.1382,9.1645e-05,0.00034617,0.00066898,0.00010623,0.00057533
0.0435,5.9806e-06,0.083971,1.0701,49.089,0.63258,2.615,0.39863,1.3104,0.65615,67.389,2.1306,0.00056595,0.0002929,0.00067256,0.00097471,0.00056838
0.044,0.00037231,0.082069,1.1483,47.443,0.68206,2.7924,0.42345,1.421,0.70002,63.038,2.2984,0.0007279,0.00037481,0.00024548,0.00059382,0.00056801
0.0445,0.00014983,0.08016,1.1311,48.713,0.68071,2.9011,0.45588,1.4153,0.65615,63.696,2.2488,0.00088688,0.00062565,0.00065972,0.00075095,0.00038596
0.045,0.00063958,0.082069,1.0758,52.452,0.67959,3.0137,0.49211,1.4001,0.65234,69.664,2.2202,0.00047103,0.00015825,0.00054606,0.0004159,0.00063322
0.0455,0.00020462,0.076355,1.0167,51.048,0.66994,3.0537,0.47494,1.3218,0.63135,69.04,2.1439,9.2633e-05,0.0009855,0.0003904,0.00091203,0.00063108
0.046,0.00048062,0.068732,1.0033,48.103,0.68071,2.9641,0.44252,1.3218,0.62563,63.617,2.142,0.00092925,0.00036372,0.000796,8.5815e-05,0.00078533
0.0465,0.00039033,0.074448,1.03,48.28,0.70439,2.7829,0.46352,1.3257,0.66187,63.387,2.1744,0.00040127,0.00076169,0.00037114,0.00090081,0.00040957
0.047,0.00014893,0.080164,1.0395,52.625,0.70102,2.781,0.45017,1.3008,0.66187,70.116,2.1687,0.00077783,0.00095545,0.00039634,0.00021193,0.00012126
0.0475,0.00038883,0.0916,0.99757,49.909,0.66736,2.8973,0.42918,1.3218,0.67522,68.253,2.1897,0.00035143,0.00069215,0.0004162,0.00057753,9.9825e-05
0.048,0.00024775,0.085876,0.98424,48.559,0.63438,2.6932,0.42918,1.3123,0.68285,64.306,2.205,0.00056909,0.00037416,0.00056058,0.00097686,0.00031979
0.0485,0.00026495,0.083971,1.0185,46.405,0.62405,2.5368,0.4616,1.3447,0.71909,60.783,2.3137,0.00034235,0.00050408,0.0004364,0.00060492,9.1505e-05
0.049,3.6538e-05,0.091588,1.0167,49.495,0.55415,2.472,0.44823,1.2894,0.721,65.611,2.2221,0.00027193,0.00050498,0.00098802,0.00022098,0.0003435
0.0495,0.00099863,0.095403,1.0358,48.794,0.5555,2.3137,0.46346,1.297,0.74007,66.004,2.2336,8.2964e-05,0.00097204,0.00012055,0.0003996,0.00046541
0.05,0.00039166,0.10303,1.0033,45.818,0.53003,2.0962,0.41389,1.2207,0.67141,62.267,2.102,0.0007297,0.00081438,0.00092005,0.00042965,0.00084111
0.0505,0.00098504,0.11447,1.0567,47.103,0.54731,2.0543,0.40818,1.2837,0.70002,61.622,2.184,5.6385e-05,0.0003082,0.00094934,0.00049987,0.00019193
0.051,0.00066394,0.11256,1.0224,49.054,0.50479,2.163,0.40629,1.2627,0.67713,62.858,2.0867,0.00022905,0.00053182,0.00059654,0.00017759,3.9728e-06
0.0515,0.00018706,0.11066,1.0414,50.518,0.4645,2.2984,0.37577,1.276,0.6714,66.437,2.0943,0.00069672,0.00063887,0.00010603,0.00040299,0.00084273
0.052,0.00086069,0.10876,1.0338,47.304,0.46585,2.1992,0.39677,1.2742,0.6714,62.258,2.0371,0.00026619,2.2264e-05,0.00071775,0.00082286,0.00096169
0.0525,0.00080972,0.10304,1.1082,47.164,0.50018,2.1706,0.44065,1.318,0.6962,60.398,2.0981,0.00087276,0.00029617,0.0004887,8.3052e-05,0.00049459
0.053,0.00020725,0.10686,1.0967,48.663,0.49446,2.2317,0.45019,1.3237,0.66759,61.184,2.0409,0.00034933,0.00028471,0.00075961,1.4076e-05,0.00053225
0.0535,0.00010892,0.10114,1.0376,52.358,0.49525,2.4319,0.48069,1.2971,0.64661,67.4,1.9589,0.00044003,0.00029575,0.00038604,0.00059246,0.00091728
0.054,3.5635e-05,0.095423,0.92319,49.364,0.47685,2.4148,0.45971,1.2398,0.60275,64.091,1.8483,0.00088026,0.0001441,0.00068477,0.00090329,0.00030765
0.0545,0.00067808,0.089699,0.85832,47.923,0.46664,2.3766,0.42348,1.1692,0.57413,60.659,1.7949,5.7182e-06,0.00018088,0.00028615,4.8503e-05,0.00075804
0.055,0.00019176,0.087785,0.90984,49.76,0.50232,2.3728,0.44064,1.2169,0.61228,62.143,1.8807,7.8921e-05,0.00097547,0.00046937,0.000606,0.00047515
0.0555,0.00081784,0.083965,0.9041,51.187,0.50984,2.4758,0.45781,1.2246,0.60274,67.211,1.8845,0.00044097,0.00069312,0.0003483,0.00018974,0.00026139
0.056,0.00012539,0.0935,0.97085,50.207,0.55236,2.575,0.47497,1.2799,0.62563,67.545,1.9646,0.00045708,0.00081146,0.0009459,0.00070791,0.00055386
0.0565,0.00040977,0.095399,0.95563,48.711,0.55943,2.7524,0.51693,1.2761,0.6161,62.994,1.9589,0.00097816,0.00018385,0.00021228,0.00054263,0.00062201
0.057,9.1886e-05,0.089673,0.9804,49.165,0.5702,2.8306,0.52456,1.2913,0.59702,63.657,2.0333,0.00039237,0.00092657,0.00050938,0.00061819,0.00035757
0.0575,0.00073215,0.091582,0.97467,52.797,0.58164,2.9508,0.46731,1.2741,0.59321,69.801,2.0295,0.00013614,0.00074913,0.00019936,0.00019491,0.00063748
0.058,0.00036093,0.089677,1.0243,50.381,0.59825,2.8382,0.48065,1.2856,0.65997,68.833,2.1039,0.00034896,0.00042932,0.00022047,0.00072294,1.6412e-05
0.0585,0.00084318,0.091586,1.0205,47.857,0.57659,2.781,0.41963,1.2246,0.62754,64.38,2.0447,0.00050661,0.00087498,0.00028911,0.00072187,0.00069875
0.059,0.00088508,0.093493,1.0567,48.322,0.60902,2.6398,0.41202,1.2322,0.63326,63.768,2.0886,0.00053448,0.0005261,0.00021488,0.00043125,0.00073207
0.0595,0.00037138,0.093495,1.0739,52.961,0.61037,2.7943,0.39678,1.236,0.62945,70.421,2.0505,0.00021348,0.0004198,0.00037771,0.00034898,0.00087849
0.06,0.00061411,0.082065,1.0433,50.487,0.63684,2.8439,0.40059,1.2703,0.65233,68.718,2.0734,0.00091009,0.00090875,0.00015068,0.00052275,0.00041718
0.0605,0.00090426,0.076351,1.0815,48.162,0.65659,2.7695,0.3777,1.2684,0.66377,63.852,2.0867,0.00032652,0.00074417,0.00096622,0.00097322,9.2384e-05
0.061,0.00025839,0.068722,1.0681,45.883,0.63438,2.4586,0.37388,1.2723,0.6943,60.449,2.1249,0.00035611,0.00071701,0.00092764,0.00042093,0.0005322
0.0615,0.00022053,0.070635,1.0948,49.003,0.6438,2.3709,0.34526,1.2799,0.71337,64.911,2.1668,0.0005865,2.9123e-05,0.00061464,0.00049731,0.00071732
0.062,8.3483e-05,0.072545,1.0624,48.784,0.63191,2.3823,0.39674,1.2799,0.73435,65.125,2.1649,0.000803,0.00096654,0.00042596,0.00020698,0.00091986
0.0625,0.00049558,0.068728,1.0186,46.066,0.6079,2.2183,0.40819,1.2074,0.71719,61.87,2.0524,0.00034435,0.00092436,0.00071916,0.00025054,0.00097724
0.063,0.00073853,0.078257,0.93081,47.08,0.58557,2.2793,0.41011,1.1349,0.62754,61.483,1.9322,0.00059739,0.00038594,0.00016027,0.00045188,0.00099296
0.0635,0.00011043,0.078255,0.97278,48.948,0.60151,2.348,0.42155,1.2093,0.65043,63.295,2.0352,0.00067412,5.2256e-05,2.1918e-05,0.00036741,0.00032863
0.064,0.00019456,0.078248,0.9785,49.772,0.58816,2.43,0.43106,1.2455,0.68095,66.967,2.1001,0.00091646,0.00026513,4.0104e-05,0.00082039,0.00030431
0.0645,0.00086882,0.089689,1.0014,46.262,0.58804,2.3633,0.44442,1.2799,0.70383,62.557,2.1764,0.00030892,0.00099019,0.00036916,0.00044434,0.00018483
0.065,0.00055173,0.089689,0.99757,46.01,0.53093,2.4071,0.47495,1.2322,0.65424,60.278,2.1325,0.00081024,0.00081085,0.00015399,0.0008737,0.00064737
0.0655,0.00069322,0.09731,0.96324,47.832,0.50546,2.4167,0.47877,1.2341,0.61991,61.754,2.0734,0.00058139,0.0006344,0.00089505,0.00013981,8.9427e-05
0.066,0.00040388,0.095403,0.93653,51.611,0.54552,2.7696,0.45204,1.2379,0.59702,68.579,2.0734,0.00023703,0.00082454,0.00023143,0.00044613,0.00064115
0.0665,0.00087307,0.091586,0.94039,48.45,0.54957,2.7161,0.44632,1.2646,0.58367,65.283,2.1115,0.00094521,1.7577e-05,0.0006571,0.00073672,6.5562e-05
0.067,0.00049986,0.089679,0.96898,47.113,0.54878,2.6646,0.40438,1.2703,0.56841,61.872,2.0848,0.00029058,0.00020874,0.00086947,0.00020812,0.00074934
0.0675,0.00032674,0.093498,0.97279,48.835,0.54226,2.6418,0.38342,1.276,0.55887,62.229,2.0447,0.0004434,4.8259e-05,0.00067191,0.00048479,0.0005429
0.068,6.0626e-05,0.083965,1.0109,50.558,0.53598,2.8592,0.37006,1.299,0.58176,67.089,2.0562,0.00025676,0.00013966,0.00068134,0.00011256,0.00018391
0.0685,0.00067148,0.083963,1.009,49.423,0.52251,2.9088,0.36435,1.2951,0.57604,66.935,2.0276,0.00049221,0.00019934,0.0008279,0.00039059,6.9985e-05
0.069,3.3092e-05,0.080156,0.99186,48.101,0.54663,2.9145,0.39107,1.3028,0.58176,62.473,2.0066,0.00075991,0.00030258,0.00010972,0.00019092,0.00035915
0.0695,6.208e-05,0.070625,0.97092,48.541,0.5582,2.8745,0.37963,1.2894,0.57795,63.11,1.9856,0.00060832,0.00087269,0.00086012,0.0004551,0.00043888
0.07,0.00059704,0.08016,1.0014,52.259,0.61025,3.0671,0.38533,1.3428,0.61037,69.698,2.0638,0.00054349,0.00047292,0.00065617,1.9241e-05,0.00085034
0.0705,8.3899e-06,0.07825,0.9385,50.169,0.57536,2.9412,0.4311,1.2627,0.62372,68.718,1.9723,0.00021948,0.00058974,0.00046881,0.00071272,0.00020856
0.071,0.00032501,0.083967,0.95949,47.655,0.54047,2.7924,0.454,1.2417,0.59321,63.638,1.915,0.0008436,0.00033629,0.0009916,0.00078893,9.4528e-05
0.0715,0.00079693,0.08587,0.90986,47.765,0.52633,2.7581,0.47308,1.1845,0.56078,63.246,1.8178,0.00069868,8.1789e-05,0.00027902,0.00013502,0.00067691
0.072,0.00059774,0.089683,0.91367,52.248,0.52195,2.9183,0.44446,1.1864,0.57222,70.025,1.8597,0.00093335,6.936e-05,0.0008411,0.00053592,0.00098719
0.0725,0.00052993,0.089679,0.94803,49.713,0.51242,2.9851,0.4578,1.215,0.58367,68.522,1.9131,0.00023298,0.00030994,0.00011589,0.00059706,0.00064283
0.073,0.00037297,0.10494,0.94227,47.506,0.53384,2.7829,0.454,1.2303,0.58367,64.705,1.9532,0.00089453,1.572e-05,0.00085782,0.00021355,0.0006475
0.0735,1.8131e-05,0.10494,0.88696,45.846,0.5638,2.5674,0.45209,1.194,0.5913,61.355,1.9112,0.00075509,0.00072157,0.00083824,0.00097449,0.00041648
0.074,0.00023903,0.10494,0.86982,49.066,0.52386,2.7333,0.40439,1.1425,0.54552,66.051,1.8788,0.00085622,0.00063212,0.0008255,0.00024342,0.0006097
0.0745,0.00023105,0.10303,0.88694,47.937,0.52498,2.7428,0.41391,1.1978,0.57031,66.372,1.9265,0.00092521,0.0009539,0.00011791,0.00011145,0.00055415
0.075,0.00016628,0.097308,0.87551,45.78,0.49076,2.5388,0.37957,1.1883,0.57795,63.028,1.9284,0.00087923,0.00018172,0.000238,0.00035042,0.00019616
0.0755,0.00013902,0.093504,0.95941,46.434,0.49962,2.7486,0.32046,1.2436,0.61418,62.66,2.0581,0.00011976,0.00019089,0.00016352,0.00052039,0.00017801
0.076,0.00019617,0.10305,0.93651,48.673,0.48099,2.7676,0.30329,1.2036,0.61991,64.535,1.9971,0.00034678,0.00098055,0.00091784,0.00061265,0.00085131
0.0765,2.2017e-05,0.097333,0.91556,50.02,0.48369,2.7371,0.31472,1.2169,0.66188,67.48,2.0409,0.00094933,0.00077197,0.00051583,1.2056e-05,0.00097828
0.077,0.00079508,0.099236,0.84692,46.424,0.48381,2.5979,0.32616,1.1387,0.62564,63.07,1.8979,0.00070615,0.00058296,0.00061929,0.00065744,0.00035073
0.0775,0.00095193,0.099238,0.83544,46.327,0.50916,2.615,0.40057,1.1521,0.65806,61.254,1.9723,8.7423e-05,0.00095185,0.00017837,0.00041282,0.00060399
0.078,0.0001939,0.080168,0.88315,47.763,0.52712,2.5845,0.412,1.1693,0.67904,61.695,2.0295,0.00094019,7.5744e-05,0.00092728,0.00086133,0.0007944
0.0785,0.00064649,0.082069,0.9461,51.384,0.53912,2.7543,0.43869,1.2093,0.73817,68.396,2.163,0.00047994,0.0009426,0.00054681,0.00088362,0.00019573
0.079,0.00049469,0.083971,1.0224,48.204,0.57076,2.657,0.45204,1.2474,0.7725,64.541,2.2507,0.00055493,0.00033054,0.00094725,0.00076951,0.00033088
0.0795,0.00037531,0.087779,1.0262,47.922,0.54103,2.7448,0.45015,1.215,0.76869,61.235,2.2336,0.00040317,0.00063423,0.00065064,0.00096788,0.00024948
0.08,0.00019669,0.083963,1.0472,48.761,0.53968,2.7028,0.45589,1.1826,0.75915,61.193,2.1611,0.00017635,8.0057e-06,8.0063e-05,0.0005005,0.00094913
0.0805,0.00029268,0.085868,0.98423,51.014,0.54282,2.7638,0.46351,1.1445,0.72291,66.303,2.039,0.00069412,0.00098127,0.00073869,0.00041228,0.00093124
0.081,0.00019948,0.070607,1.0358,49.579,0.55259,2.6437,0.46924,1.1731,0.74389,66.172,2.1134,0.00042703,0.00025564,0.00032157,0.00021595,0.00011395
0.0815,0.00066784,0.070607,1.1254,47.855,0.55438,2.5979,0.43493,1.2074,0.76678,62.13,2.1229,9.2563e-05,0.0004474,3.3508e-05,0.00047322,0.00072426
0.082,0.00070929,0.068703,1.1997,48.873,0.55291,2.7009,0.40822,1.3085,0.79348,63.121,2.2317,0.0004043,0.00055131,5.6257e-05,0.0008569,0.00074352
0.0825,0.00038069,0.068703,1.1998,52.387,0.52756,2.8039,0.32999,1.2932,0.74579,69.191,2.2011,0.00066534,0.00038918,0.00011034,0.00082621,0.00094765
0.083,0.00034387,0.070611,1.2035,50.449,0.52554,2.9164,0.31282,1.3161,0.75342,68.207,2.2526,0.00057342,0.00087726,0.00057469,0.00053981,0.0002233
0.0835,0.00087732,0.068711,1.2207,47.872,0.49827,2.8592,0.29566,1.3581,0.69239,63.268,2.1859,0.00022127,0.00068483,0.00078333,0.00023332,0.00058591
0.084,0.0005653,0.068715,1.2207,47.91,0.4883,2.7714,0.30902,1.3695,0.71146,63.591,2.1649,0.00044351,0.00049227,8.7309e-05,0.00089883,0.00033103
0.0845,0.00042026,0.076341,1.1711,52.33,0.49199,2.7905,0.3071,1.3085,0.70002,70.29,2.0848,0.00063055,0.00036422,0.00078037,0.00014059,0.00035651
0.085,0.00030211,0.078246,1.1406,50.411,0.51298,2.9336,0.32616,1.3276,0.69811,68.888,2.142,0.00059446,0.00083727,0.00045681,0.00063765,1.9145e-05
0.0855,3.9024e-05,0.076339,1.1368,47.681,0.49839,2.9507,0.34906,1.3276,0.67713,64.296,2.1764,8.8835e-05,0.00060884,0.00044265,0.0009054,0.00096162
0.086,0.00065252,0.080154,1.1406,46.062,0.54203,2.9298,0.35098,1.3161,0.65806,61.01,2.1764,5.7557e-05,0.00038258,0.00082553,0.0001299,0.00029931
0.0865,0.0004421,0.091588,1.1235,49.213,0.56368,3.1987,0.37575,1.2913,0.61037,65.912,2.1916,7.6395e-05,0.00087496,0.00017824,0.00037289,9.0182e-05
0.087,0.00017598,0.093489,1.1292,48.242,0.58792,3.008,0.43677,1.2818,0.6695,65.847,2.2431,0.0006884,0.00075495,0.00099409,0.00025282,0.00018998
0.0875,0.00043375,0.091582,1.1692,45.951,0.60632,2.8134,0.44823,1.3237,0.70002,62.168,2.2679,0.00064966,3.3493e-06,0.00079675,0.00079992,0.00084918
0.088,0.0009515,0.099208,1.1673,46.88,0.60711,2.9355,0.47114,1.3085,0.6962,61.658,2.2145,0.00018995,0.00037557,0.00045965,0.00017394,0.00016691
0.0885,0.00030401,0.10302,1.1349,48.793,0.59634,3.1281,0.50737,1.2608,0.66378,63.305,2.1725,5.4701e-05,3.4422e-05,0.00016142,0.00022311,0.00053636
0.089,0.00078237,0.10684,1.0529,50.594,0.55864,3.1625,0.48637,1.1883,0.59702,66.816,1.9856,0.00096942,0.00070889,0.00083669,0.00038269,0.00084474
0.0895,0.00076143,0.10303,1.1158,46.773,0.59881,3.1033,0.48639,1.2875,0.60274,62.633,2.0943,0.00063486,0.00076984,0.00068735,0.00046245,2.4484e-05
0.09,0.00022265,0.10494,1.1273,46.317,0.57659,3.0824,0.55126,1.2627,0.62945,60.876,2.0409,0.00087128,1.4858e-06,0.00091089,0.00070109,0.00021486
0.0905,9.5048e-05,0.10303,1.194,47.883,0.60958,2.8878,0.57034,1.3752,0.69239,61.065,2.1992,0.00072795,0.00092439,0.00025478,0.00018508,0.0002082
0.091,0.00059497,0.10112,1.1616,51.309,0.55382,2.9393,0.56079,1.381,0.72863,68.02,2.1878,0.00090518,0.00064732,0.0003843,6.1839e-05,0.00090235
0.0915,0.00073398,0.087781,1.1616,48.404,0.56717,2.8725,0.55126,1.4267,0.77441,64.506,2.2145,0.00021049,0.00019699,0.0001164,0.00099374,0.00036874
0.092,0.00041388,0.082067,1.133,47.351,0.55303,2.9946,0.50549,1.4134,0.72863,61.281,2.1439,6.8513e-05,0.00047756,0.00016422,0.00027138,0.00028929
0.0925,0.0001181,0.080164,1.1235,48.803,0.5729,2.9107,0.51502,1.4191,0.71528,62.696,2.1516,0.00083316,0.00049612,0.00067808,0.00052274,6.6261e-05
0.093,0.00015266,0.080164,1.0796,50.735,0.54675,2.823,0.52071,1.3753,0.7191,67.164,2.1096,0.0003238,0.00023534,0.00084625,0.00010989,0.00050068
0.0935,0.00013818,0.070631,1.0433,49.72,0.56066,2.7524,0.48639,1.3161,0.73626,67.249,2.0753,0.00040645,8.0407e-05,0.0007643,0.00019258,0.00065251
0.094,0.0009832,0.066808,1.0357,47.664,0.57985,2.7982,0.49977,1.3333,0.75915,62.683,2.1382,0.00041359,0.00082831,0.000303,0.00077583,0.00083863
0.0945,0.00097293,0.061088,0.96892,49.243,0.55303,2.636,0.536,1.2379,0.75152,63.793,2.0619,0.00039917,0.00096294,0.00026335,0.00029092,0.00040785
0.095,5.1011e-05,0.055366,1.0166,52.789,0.58669,2.7238,0.43681,1.2989,0.75914,70.354,2.1458,4.0942e-05,8.7281e-05,0.00016954,0.00084405,0.0004729
0.0955,0.00033708,0.053458,1.0071,50.892,0.57659,2.657,0.46158,1.2379,0.73244,69.721,2.0199,9.2717e-05,0.00074532,0.00084693,0.00052398,0.00058834
0.096,0.00068349,0.057277,1.03,48.431,0.64447,2.6665,0.46348,1.3199,0.7477,64.022,2.1344,0.00079169,0.00047249,0.00026687,0.00078412,0.00013737
0.0965,0.00078003,0.076347,0.97656,48.555,0.61653,2.4186,0.45777,1.2932,0.75343,63.608,2.039,0.00068072,0.0007856,0.00084676,0.00098764,0.00017921
0.097,0.00060011,0.080158,0.97661,53.199,0.62944,2.5922,0.48446,1.2952,0.75915,70.068,2.0486,0.0002115,0.00023355,0.00081192,0.00068435,3.506e-05
0.0975,0.0001335,0.082057,0.93272,50.926,0.59488,2.7295,0.4673,1.2055,0.72673,68.455,1.9341,0.00071989,0.00021621,0.00010635,0.00082966,0.00044672
0.098,3.1187e-05,0.076335,0.96706,48.381,0.60374,2.5902,0.47876,1.2608,0.73245,64.371,1.9971,0.00088693,0.00040124,0.00093255,0.00088236,0.00094485
0.0985,0.0007358,0.083963,0.98042,46.02,0.61204,2.3976,0.5398,1.3009,0.71719,60.726,2.0009,0.00047266,1.1595e-05,0.00017279,6.1992e-05,0.00094834
0.099,0.00071893,0.0935,1.0643,49.321,0.63482,2.4796,0.51691,1.4057,0.75152,65.304,2.1573,0.00010691,0.00071533,0.00026677,0.00072019,0.00010486
0.0995,9.504e-05,0.095407,1.0796,48.303,0.64066,2.5788,0.51308,1.4363,0.7458,65.355,2.1687,0.00080731,0.00042453,0.00019775,0.00030728,0.00060845
0.1,0.00088323,0.097316,1.0262,45.625,0.61339,2.5883,0.51117,1.4229,0.7191,61.189,2.1229,0.00074794,0.00056052,0.00020545,0.00048568,9.7942e-05
0.1005,0.00022393,0.10304,0.9499,46.752,0.59734,2.7085,0.46351,1.3905,0.68095,60.884,2.102,0.00073691,1.9534e-05,0.00026124,0.0004318,0.00025072
0.101,0.00067954,0.10113,0.9442,48.299,0.53272,2.7314,0.46543,1.3466,0.67523,62.959,2.06,0.00046694,9.4667e-05,0.00070702,0.00027138,0.00014596
0.1015,0.00085236,0.09159,0.96328,49.682,0.52195,2.8172,0.4883,1.3371,0.62563,66.773,2.0924,0.00090383,3.0775e-05,0.00058926,0.00028604,0.00032242
0.102,0.00069055,0.091592,0.96515,46.169,0.49637,2.6398,0.48832,1.2894,0.60846,62.408,2.0505,0.00055142,0.00084542,0.00093326,0.00010379,0.00046262
0.1025,0.00090784,0.095413,0.95371,45.797,0.51298,2.7066,0.55891,1.2989,0.59702,60.1,2.0676,0.00061629,3.7036e-05,0.00080329,0.00051253,0.00073281
0.103,0.00090912,0.099232,0.91366,48.032,0.48806,2.6494,0.55128,1.2322,0.55315,60.911,1.9761,0.00026088,0.00098271,0.00010681,0.00088135,0.00076752
0.1035,0.00017285,0.091604,0.97656,51.55,0.49681,2.7467,0.47689,1.3008,0.59511,67.896,2.121,0.0008334,0.00062872,0.0008632,1.384e-05,0.00050054
0.104,0.00072901,0.08588,0.98041,48.473,0.4893,2.6875,0.49213,1.2551,0.60465,64.484,2.0657,0.00090386,3.6406e-05,0.00062988,0.00048544,2.3743e-05
0.1045,0.00032009,0.087781,1.0357,47.138,0.48862,2.6971,0.45589,1.3085,0.62945,60.93,2.1458,0.00030447,0.00050733,0.00043183,0.0007709,0.00084787
0.105,0.00053515,0.089683,0.99378,48.925,0.47078,2.5006,0.4883,1.2074,0.59321,62.549,2.0486,0.00079168,0.0003234,0.00072506,0.00047497,0.00030423
0.1055,0.00054723,0.087775,1.0224,50.773,0.48313,2.6131,0.51307,1.2475,0.60465,66.917,2.0962,0.0002787,0.00057224,0.00014315,0.00079342,0.0009245
0.106,0.00098218,0.091592,0.95947,50.026,0.48616,2.596,0.52832,1.215,0.56269,67.137,1.9646,0.0001252,0.00018754,0.0009467,0.00060546,0.00024161
0.1065,0.00059852,0.085874,1.0205,48.33,0.50321,2.7619,0.53024,1.2589,0.61991,62.845,2.0142,0.00029359,4.9724e-05,0.00058399,0.00071433,0.00083094
0.107,0.00096321,0.083971,1.0091,49.455,0.50904,2.6074,0.51117,1.2494,0.6161,64.302,2.0047,0.00095608,9.299e-05,0.00064834,0.00021189,5.0488e-05
0.1075,0.00095933,0.083963,1.0777,52.879,0.54394,2.6532,0.4692,1.3409,0.68095,70.597,2.1458,0.0004667,0.00070942,0.00083338,3.5837e-05,0.00055795
0.108,0.00076286,0.083958,1.1025,50.325,0.57525,2.7371,0.46348,1.3676,0.68286,69.618,2.1878,0.00093685,0.00083128,0.00028283,0.00046435,0.00058802
0.1085,0.00095275,0.089679,1.0625,48.188,0.59197,2.7104,0.47111,1.3161,0.67523,64.314,2.0772,0.0009569,0.00090345,0.00060224,0.00052925,0.00080636
0.109,5.682e-05,0.085872,1.0186,48.784,0.5932,2.6532,0.47112,1.299,0.63517,64.155,2.0409,0.00073429,1.7715e-05,0.00099178,0.00072889,0.00031343
0.1095,0.00095632,0.082065,1.0282,53.178,0.59579,2.8783,0.4902,1.299,0.61992,70.957,1.9837,2.6062e-05,2.9239e-05,0.00078913,0.00037099,0.00019952
0.11,0.00036922,0.078257,1.0987,50.609,0.62002,2.8287,0.48829,1.381,0.64471,68.941,2.0695,0.00099343,0.0009887,0.00038268,0.00039122,0.00025777
0.1105,0.00047078,0.078259,1.0815,48.364,0.6484,2.6913,0.43109,1.3085,0.64471,65.109,1.9742,0.00038622,0.00017802,0.0009952,0.00014584,2.3352e-05
0.111,0.00045972,0.072536,1.1616,46.323,0.64963,2.6074,0.4292,1.3008,0.6695,61.676,2.0352,0.00082803,0.00061177,5.4115e-05,0.00064503,0.0006233
0.1115,0.00094104,0.070627,1.0834,49.766,0.62607,2.6608,0.39678,1.2036,0.60656,66.16,1.9131,0.00033519,1.2623e-05,0.00073039,0.00085066,0.00049142
0.112,0.00060852,0.068718,1.1616,48.607,0.68632,2.8077,0.38723,1.3142,0.63898,65.983,1.9951,0.00099326,4.0641e-05,0.00013454,0.00082525,0.00053919
0.1125,0.00054988,0.06681,1.1426,46.272,0.68329,2.6246,0.36433,1.3199,0.62754,62.515,1.9837,0.00071842,0.00079019,0.00083639,9.1418e-05,0.00092502
0.113,0.00044791,0.064903,1.1502,47.286,0.69664,2.5883,0.36052,1.3562,0.6676,62.526,2.0734,0.00080074,0.00065455,0.00069958,0.00055224,3.93e-05
0.1135,0.00068982,0.070621,1.1197,49.373,0.65031,2.6894,0.37577,1.3085,0.64471,64.531,2.0047,0.00012483,0.00088331,0.00082412,0.00017043,0.00046167
0.114,0.00075814,0.072526,1.1407,50.482,0.64975,2.6551,0.40436,1.2856,0.68858,67.845,1.9913,0.00089567,0.00067805,0.00035786,0.00010441,0.00050794
0.1145,0.00094666,0.072526,1.0663,46.941,0.61856,2.5407,0.37196,1.2017,0.65043,63.558,1.915,0.00070028,0.00097187,0.00056443,0.00037148,0.00076804
0.115,0.00066864,0.070619,1.009,47.004,0.63358,2.718,0.35672,1.1711,0.63516,61.655,1.9417,0.00068007,0.00037294,0.00092668,0.00034404,0.00022265
0.1155,0.00032283,0.076333,1.0662,48.206,0.60386,2.6761,0.36626,1.1959,0.64089,62.555,2.0009,0.00065006,0.00016893,0.00068163,0.0005415,9.8882e-05
0.116,6.1601e-05,0.085864,1.0948,52.343,0.65031,2.8363,0.36817,1.2684,0.67713,69.222,2.1477,0.00096529,0.00068903,0.00073911,0.00090981,0.00071321
0.1165,0.0006826,0.091584,1.1158,49.142,0.66557,2.6494,0.37579,1.3142,0.69811,65.474,2.2584,0.00072145,0.00078157,0.00099392,0.00016206,0.00036686
0.117,0.00088683,0.097306,1.0682,48.212,0.6079,2.5903,0.37008,1.236,0.69048,61.992,2.2279,5.9737e-05,0.00083003,0.00018059,0.00072662,0.00099144
0.1175,0.00074685,0.097316,1.0758,50.386,0.57548,2.5597,0.39678,1.2017,0.65615,63.087,2.1687,0.0004835,0.00068405,0.0003204,0.00019868,0.00039409
0.118,0.0009027,0.097314,1.0701,51.321,0.56213,2.7505,0.40439,1.1559,0.61609,67.051,2.0257,0.00044879,0.0003633,0.00035171,0.00079677,0.00018611
0.1185,0.00062644,0.089689,1.0739,50.123,0.58557,2.7104,0.41965,1.1922,0.63708,67.282,2.06,0.00061988,0.00055206,8.2858e-05,0.00083705,0.00066339
0.119,0.00032492,0.082061,1.0357,48.244,0.56571,2.8001,0.40823,1.2055,0.60656,62.952,2.0562,0.00064901,0.00064512,0.00039398,0.00076989,0.00043745
0.1195,0.00083297,0.083969,1.0796,49.613,0.60195,2.6456,0.44447,1.2512,0.61991,64.15,2.102,0.00057129,0.00035147,0.00072125,0.000354,0.00048934
0.12,0.00091408,0.089687,1.1197,53.119,0.56583,2.739,0.43492,1.2494,0.60846,70.229,2.0238,0.00062751,0.000264,0.00062419,0.0008228,0.00061028
0.1205,0.0006035,0.091594,1.1387,51.113,0.60644,2.6971,0.43872,1.3237,0.63516,69.548,2.1058,0.00098523,0.00052532,0.00018866,0.00059808,0.00089198
0.121,0.00050755,0.085872,1.1082,47.967,0.59309,2.5292,0.43489,1.2837,0.63135,64.186,2.0524,0.00016271,0.00078211,0.00035673,0.00041863,0.00020667
0.1215,0.0004483,0.085874,1.1349,48.011,0.61351,2.5941,0.4387,1.3161,0.66187,63.85,2.0657,0.00042517,0.00099343,0.00072625,0.0009222,0.00012935
0.122,0.00054355,0.085874,1.0853,52.516,0.59813,2.7447,0.42344,1.3008,0.6199,70.663,2.0085,0.00020526,0.00038503,0.00024794,0.000864,0.00014883
0.1225,0.00023573,0.085868,1.0567,49.56,0.60004,2.7753,0.37767,1.2474,0.61609,68.85,1.9684,0.00067347,0.00016321,0.0003703,0.00085544,0.00048228
0.123,0.00084144,0.082059,1.0433,47.845,0.57334,2.6208,0.34907,1.2379,0.6199,64.748,1.957,0.0006498,0.00065049,0.00094207,0.00018712,0.00073483
0.1235,0.00023279,0.080152,1.0204,45.573,0.55538,2.409,0.39106,1.2303,0.5684,60.825,1.9761,0.00079899,0.00061736,0.00095937,6.4157e-05,0.00068262
0.124,0.00052898,0.097318,1.0777,48.795,0.58725,2.4472,0.34527,1.2551,0.59129,65.618,1.9951,0.00014312,0.00078052,0.00010189,0.00030954,1.8433e-05
0.1245,0.00054518,0.095407,1.0796,47.979,0.58534,2.5063,0.34143,1.2799,0.64089,65.472,2.0466,0.00057526,0.0001588,0.00063788,7.458e-05,0.00024933
0.125,0.00088136,0.0935,1.0681,44.98,0.59544,2.3709,0.36432,1.2932,0.66378,61.182,2.081,0.00097896,0.0004081,0.00022949,0.00087082,8.9647e-05
0.1255,0.00011064,0.085876,1.0529,46.272,0.56245,2.5273,0.37768,1.2551,0.65234,60.318,2.06,0.0005304,7.1805e-05,0.00014303,0.00039182,0.00064889
0.126,0.00053089,0.082065,1.0433,48.463,0.55359,2.6322,0.40057,1.2722,0.64089,62.252,2.0123,0.00098426,0.00017238,0.00048521,0.00065759,0.00041116
0.1265,3.5561e-05,0.078248,0.98801,50.091,0.55033,2.5121,0.45206,1.2188,0.5932,66.002,1.9055,0.00019705,6.5666e-05,0.00014038,0.00063527,0.00047335
0.127,0.00097394,0.068711,1.009,46.218,0.607,2.245,0.49592,1.2646,0.62754,61.798,2.0085,0.00049063,0.00055755,0.00061024,0.00014754,9.5712e-05
0.1275,0.00011201,0.062995,0.98421,45.806,0.58399,2.226,0.50738,1.2837,0.64852,59.9,2.0295,0.00078759,0.00073088,0.00090319,0.00085928,0.00096925
0.128,0.00013054,0.061088,0.99563,47.769,0.59667,2.3423,0.52455,1.2684,0.62754,61.304,2.0562,0.00014982,0.00068377,0.00092414,0.00080614,0.00067832
0.1285,0.00074973,0.068715,1.0204,51.561,0.59174,2.6208,0.45968,1.2513,0.67141,67.963,2.0333,0.00028949,0.00067195,0.00045566,0.00094015,0.00031851
0.129,0.00068405,0.059174,0.97277,48.774,0.58792,2.6532,0.47304,1.2188,0.6676,64.642,2.0257,0.0008551,0.00011376,0.00082788,0.00039028,5.2358e-05
0.1295,0.00041851,0.055366,0.93842,47.409,0.56492,2.6894,0.46924,1.1769,0.63898,61.273,2.0123,0.00093544,0.00066363,0.00022937,0.00064293,0.00032229
0.13,0.00080568,0.061086,0.96706,49.781,0.55931,2.5082,0.43301,1.1654,0.66188,63.039,2.0219,0.00034031,0.00019424,0.00013872,0.00010072,0.00026169
0.1305,0.00078496,0.068718,0.92509,51.328,0.57636,2.5655,0.44635,1.1616,0.64089,68.171,2.0104,0.00019818,3.25e-05,0.00010386,0.00013897,0.00079618
0.131,0.0008092,0.066814,0.89077,50.14,0.56357,2.5311,0.41584,1.1101,0.60656,67.703,1.9589,0.00059252,0.00052852,7.9803e-05,0.00029117,0.00075557
0.1315,0.00057653,0.064909,0.90987,48.334,0.52363,2.615,0.36054,1.1082,0.58367,63.171,1.9818,0.00036224,0.00041926,0.00047035,0.00059559,0.00047487
0.132,0.0002194,0.068722,0.91366,49.732,0.46068,2.7085,0.34339,1.0758,0.57223,63.72,1.8921,0.00047521,0.00082337,0.00053907,0.00040774,0.00082406
0.1325,0.00042033,0.066814,0.93846,53.239,0.46899,2.8668,0.36818,1.0796,0.55697,69.841,1.8769,0.00080374,0.00032219,0.00053884,0.00083847,0.00076861
0.133,0.00020787,0.07253,0.93277,50.975,0.45901,2.6913,0.34718,1.0911,0.60275,68.903,1.8635,0.00036637,0.00084986,0.00053076,0.00057937,0.0003734
0.1335,0.0001508,0.064903,0.97661,48.793,0.49065,2.5597,0.3739,1.1769,0.61228,64.115,1.9646,0.00092504,0.00040556,0.00059354,0.0004293,0.0005579
0.134,0.00083656,0.064905,0.96133,49.135,0.52307,2.4148,0.36818,1.2036,0.57604,64.104,2.0104,0.00090861,0.00053843,0.00047945,0.00030229,0.00063735
0.1345,0.0002829,0.072526,0.948,53.579,0.5334,2.472,0.36054,1.2207,0.57604,70.385,2.0028,0.00014557,0.00088031,0.00087653,0.00088358,0.00080671
0.135,0.00033797,0.066806,0.90791,50.68,0.5371,2.4911,0.40439,1.2245,0.56841,68.892,1.9265,0.00099766,0.00068196,0.00085964,0.00047929,0.00096749
0.1355,0.00079521,0.06108,0.93653,48.52,0.53149,2.369,0.36052,1.2436,0.60656,64.274,1.9284,0.00078849,0.0004128,0.00022538,9.4053e-05,0.00086397
0.136,0.00045256,0.064888,0.98421,46.306,0.5628,2.2126,0.35862,1.2913,0.62373,61.433,1.9513,0.00017489,0.00010736,0.00092871,0.00047794,0.00016434
0.1365,7.5289e-05,0.070609,0.98037,49.516,0.56336,2.2603,0.35863,1.2627,0.6447,66.179,1.8864,0.00061514,7.034e-05,0.00038377,5.2623e-05,0.00079097
0.137,0.00067401,0.070613,0.98612,48.666,0.62058,2.3556,0.37578,1.2761,0.65043,66.248,1.9417,0.0008792,0.00090986,0.00035406,0.00087718,0.00082011
0.1375,8.4971e-05,0.07824,1.0109,46.233,0.66703,2.3518,0.35099,1.3237,0.67713,62.885,2.0199,0.0007896,0.00047425,0.0001639,0.00010154,0.00059152
0.138,3.8171e-05,0.074432,1.028,47.424,0.71123,2.3308,0.38534,1.3981,0.66949,62.664,2.1382,0.00076776,0.00064091,0.00056561,0.0003424,0.00083644
0.1385,0.0008043,0.074432,0.98421,49.648,0.7063,2.3041,0.33765,1.3524,0.68094,64.859,2.1039,0.00059836,0.00058857,0.00071337,0.0007324,0.00045903
0.139,0.00082517,0.068711,0.98804,48.725,0.67836,2.2603,0.38341,1.3447,0.69048,65.779,2.0657,0.00051838,0.00010887,0.00018653,0.00034788,0.00082621
0.1395,0.00059916,0.06681,0.97468,46.586,0.66938,2.0447,0.36816,1.3085,0.65042,62.891,1.9475,0.00048409,0.00085309,0.00032701,0.00049718,0.00090215
0.14,0.00020577,0.064905,0.9957,46.218,0.66894,2.1306,0.34338,1.339,0.64471,61.143,2.0066,0.00075212,0.00054773,0.00075021,0.0003162,0.00081966
0.1405,0.00042664,0.063003,0.94612,47.609,0.65233,2.1515,0.36244,1.2665,0.58558,62.65,1.9284,0.0003459,0.00069393,0.00010518,7.0596e-05,0.00090247
0.141,6.0153e-05,0.063007,0.91558,52.404,0.64077,2.4911,0.40248,1.2265,0.57413,69.483,1.8902,0.00084835,0.00041477,0.00041411,0.0009458,0.00049193
0.1415,0.00048588,0.066824,0.92894,48.595,0.66052,2.3289,0.43489,1.2589,0.58367,65.656,1.9398,0.00019299,0.00025273,0.00053043,0.0007695,0.00066634
0.142,0.00089075,0.066818,0.97661,47.571,0.66231,2.2889,0.44635,1.318,0.60846,62.427,2.0371,0.00083721,0.0008666,0.00061834,1.6193e-05,6.0298e-05
0.1425,0.00067707,0.068724,0.9499,48.473,0.6337,2.1859,0.45969,1.2989,0.61037,61.615,2.0066,0.00025731,0.00084541,0.00024566,0.00096021,0.00015767
0.143,0.00059855,0.072536,0.90606,50.928,0.60465,2.4167,0.4406,1.2341,0.63136,67.228,1.9456,0.0003713,5.8348e-05,0.00084773,0.00061498,0.00033496
0.1435,0.00056128,0.076347,0.86791,49.024,0.60453,2.4968,0.43678,1.2017,0.6161,66.353,1.8674,0.00057548,0.00099275,0.00040253,0.00022662,0.0005668
0.144,0.00049267,0.078255,0.85454,49.428,0.56952,2.5826,0.37576,1.1635,0.62373,63.883,1.8368,5.7945e-05,0.00074055,0.00034116,0.00015379,0.00081433
0.1445,0.00022167,0.07825,0.91753,48.217,0.58299,2.6341,0.37958,1.1655,0.62373,62.639,1.9379,0.00037253,0.00060327,2.1652e-05,0.00025889,0.00049459
0.145,0.00035259,0.076345,0.88507,52.463,0.54473,2.8344,0.3853,1.1292,0.60084,69.378,1.9036,0.00098177,1.3519e-05,0.00061144,0.00061393,0.00071904
0.1455,0.00046218,0.076343,0.93083,50.692,0.53845,2.8687,0.38531,1.1654,0.63517,68.146,1.9837,0.00028817,0.00070598,0.00079457,0.00086311,6.4147e-05
0.146,0.00090848,0.078244,0.9442,47.105,0.55057,2.6685,0.32811,1.1883,0.63899,62.357,2.0371,0.00032537,0.00040077,0.00062903,0.00068677,0.00031933
0.1465,0.00039509,0.066802,0.98422,47.927,0.59241,2.8783,0.28235,1.2741,0.64661,62.2,2.1573,0.00022744,0.0001314,0.00092191,0.00090985,0.00066473
0.147,0.00044114,0.070615,0.93844,51.921,0.55999,2.9336,0.23846,1.2265,0.62563,68.962,2.0714,0.00081482,0.00064988,0.00045149,0.00070633,0.00090966
0.1475,9.218e-05,0.068707,0.948,49.982,0.5785,2.9584,0.24607,1.2341,0.61419,68.92,2.0962,0.00095663,0.00098927,0.00021588,0.0003478,0.00014902
0.148,5.9343e-05,0.064895,0.94034,46.962,0.56829,2.8859,0.24609,1.194,0.56078,63.856,2.0142,0.00039714,0.0004055,0.00068389,0.00098342,0.00055734
0.1485,0.00035628,0.064893,0.98804,45.354,0.53924,2.7142,0.31095,1.2322,0.59512,61.092,2.0543,0.00014524,0.00010987,0.0009165,0.00073704,0.00077277
0.149,0.0008758,0.0668,1.009,48.583,0.54957,2.7924,0.33956,1.2112,0.57032,65.792,1.9856,0.00019953,0.00046289,0.0009495,0.00066826,0.0007817
0.1495,0.00060172,0.066802,0.99184,48.275,0.54115,2.823,0.32049,1.1998,0.58176,66.441,1.9341,0.00053765,0.00039903,0.00051285,0.00011421,0.00067939
0.15,0.00033492,0.076335,1.0605,45.482,0.57357,2.6856,0.32622,1.2684,0.618,62.433,2.0333,0.00031681,0.00017779,0.00086095,0.0007305,0.00050771
0.1505,0.00030224,0.080148,1.0929,46.258,0.62754,2.6856,0.34148,1.3333,0.64662,62.313,2.0924,0.00015904,0.00013784,0.00013457,0.00096709,3.3491e-05
0.151,0.00040528,0.078248,1.1063,48.73,0.61598,2.7886,0.3777,1.381,0.70765,64.825,2.1096,0.00055005,0.00013218,0.00019687,4.4212e-06,0.00057007
0.1515,0.00021001,0.085876,1.0472,48.981,0.56022,2.6265,0.4349,1.3085,0.68668,67.719,2.0219,4.8416e-05,9.2344e-05,0.00059799,0.00014044,0.00021163
0.152,2.8306e-05,0.091592,1.0186,46.512,0.55596,2.5521,0.45779,1.2837,0.67142,63.816,1.9665,0.00048932,0.00011158,0.0005057,3.015e-05,0.00017554
0.1525,0.00096173,0.093504,0.9499,46.489,0.51198,2.5426,0.45017,1.1807,0.63899,62.139,1.7949,0.0002852,0.00022535,0.00058628,1.8499e-05,0.00023174
0.153,0.00048066,0.09731,0.98617,48.16,0.51782,2.3595,0.4349,1.2494,0.69049,62.997,1.8807,0.00035473,0.00042143,8.283e-05,0.00099997,0.00015964
0.1535,0.00046392,0.095409,0.96326,51.805,0.53161,2.5025,0.37005,1.2265,0.65806,68.636,1.8998,0.00030163,0.00092158,0.00051298,0.00052418,0.00041557
0.154,0.00062476,0.095405,0.98421,48.767,0.55359,2.5273,0.37577,1.3027,0.71146,65.391,2.1115,0.00025515,0.00043125,0.00017221,0.0005566,0.00087894
0.1545,0.00052521,0.097314,0.96326,47.937,0.55685,2.6093,0.41392,1.318,0.70955,62.576,2.1458,9.238e-05,0.0009719,0.00037447,4.1007e-05,0.00086096
0.155,0.0005473,0.091592,0.96707,49.915,0.5886,2.5292,0.40057,1.3047,0.71718,62.914,2.1649,0.00050824,0.00095915,0.00085956,0.00056625,0.00070483
0.1555,0.00063851,0.09159,0.95943,51.91,0.56571,2.5864,0.38148,1.2665,0.73053,67.72,2.1268,0.00097167,0.00019798,8.7072e-05,0.00055824,0.00051979
0.156,0.00044866,0.093491,0.97665,50.089,0.55001,2.4834,0.35669,1.2589,0.721,67.446,2.2031,0.00068558,0.00041161,0.00047437,0.00087151,8.5259e-05
0.1565,0.0001897,0.095401,1.0186,49.854,0.59634,2.5445,0.30711,1.257,0.73053,63.652,2.1764,0.00064984,0.00076318,0.00062094,0.00033969,0.0008992
0.157,0.00020889,0.089693,1.009,49.442,0.58411,2.3766,0.2747,1.2513,0.74389,63.755,2.1496,0.00072239,0.00030661,0.00024408,0.00022134,0.00032649
0.1575,0.00023465,0.089687,1.0415,53.23,0.59948,2.5769,0.25372,1.3028,0.74389,69.523,2.2221,0.00024363,0.00087521,0.00016285,0.00022679,0.00068251
0.158,0.00062236,0.089693,1.0643,50.972,0.62158,2.6341,0.25943,1.3047,0.70574,68.442,2.2164,0.00070156,0.00071505,0.00056931,0.00077768,0.00047305
0.1585,5.4759e-05,0.091598,1.1673,48.12,0.66613,2.6704,0.33001,1.3657,0.721,63.89,2.2946,0.00031086,0.00047464,0.00034226,0.00068088,0.00010956
0.159,0.00012435,0.089693,1.1807,47.931,0.64538,2.4434,0.34526,1.3524,0.67141,63.396,2.184,0.00051168,3.0401e-05,0.00017694,0.00094952,0.00069121
0.1595,0.00066903,0.09351,1.2131,52.591,0.62237,2.4968,0.31473,1.3829,0.71146,69.99,2.2145,7.3627e-05,0.0009652,0.00073987,0.00094696,0.00070577
0.16,0.00019752,0.10305,1.1178,49.803,0.55899,2.5845,0.35477,1.3219,0.65424,68.554,2.1039,0.00021363,0.00015695,7.807e-05,0.00035051,0.00051767
0.1605,0.00098256,0.10877,1.0739,47.141,0.51905,2.514,0.34524,1.2761,0.60847,63.345,1.999,0.00045402,2.7594e-05,0.0001902,0.00074091,0.0005934
0.161,0.00039276,0.11067,0.9461,45.623,0.50681,2.6017,0.42537,1.1521,0.54171,59.89,1.7739,3.495e-05,0.0007508,0.00025933,0.00085836,0.0003801
0.1615,0.00020972,0.10494,0.94612,48.646,0.48269,2.6837,0.42347,1.1883,0.55315,65.067,1.8216,0.00031799,0.00012231,0.00087638,0.00061319,0.00069802
0.162,0.00068113,0.10684,1.0262,48.015,0.52724,2.9298,0.44062,1.2608,0.5665,65.672,1.9112,0.0004765,0.00024452,0.00084174,0.00035095,3.4849e-05
0.1625,0.00013356,0.10303,1.0586,45.522,0.57918,2.8344,0.44444,1.3238,0.61991,62.132,1.9665,0.00040432,1.5471e-05,0.00085954,0.00049842,0.00040015
0.163,0.00045873,0.099214,0.99951,46.476,0.5545,2.9679,0.47688,1.2856,0.60656,61.605,1.9303,0.00095546,0.00024367,0.00064824,0.00011424,0.00026421
0.1635,0.00022693,0.10112,0.89652,49.116,0.52275,3.0442,0.44635,1.257,0.57413,63.972,1.8902,0.00033708,4.3515e-05,0.00048034,0.00077238,0.00067761
0.164,0.00029119,0.10494,0.87551,50.055,0.52386,3.1033,0.47877,1.2627,0.58748,67.137,1.8979,0.00034649,0.00014705,0.0001642,0.00088434,1.0286e-05
0.1645,1.1041e-05,0.10302,0.89653,46.48,0.54698,2.8573,0.55314,1.3009,0.58367,62.975,1.9265,0.0002705,0.00048534,0.00044483,0.00034153,0.0001687
0.165,0.00012297,0.091576,0.95372,46.037,0.58625,2.7028,0.50548,1.3047,0.60656,61.367,1.9494,0.00052187,0.0009475,0.00091599,7.3395e-05,0.00010694
0.1655,0.00039274,0.083952,0.9556,48.148,0.61542,2.6112,0.51119,1.3352,0.5932,62.942,1.978,0.00030411,0.00035045,0.00038985,0.00072492,0.00037594
0.166,1.4302e-05,0.085862,1.0147,51.183,0.62575,2.6246,0.43487,1.3695,0.57223,68.951,2.0371,0.00039851,0.00070853,0.00062589,0.00040847,0.00076376
0.1665,0.0007537,0.085864,0.95559,48.025,0.6263,2.6418,0.47302,1.318,0.55315,65.655,2.0066,0.00011852,0.00057761,0.00021053,0.00013538,0.00021042
0.167,0.00012436,0.07824,0.91361,47.346,0.60083,2.6608,0.515,1.2818,0.53407,62.332,2.0199,0.00019323,0.00042387,0.00037271,0.00054268,8.5238e-05
0.1675,0.00091449,0.078242,0.90983,48.843,0.55326,2.4567,0.52644,1.2322,0.49975,63.591,1.9971,0.0008473,0.00013116,0.00010795,6.3911e-05,0.00040209
0.168,0.00071091,0.083965,0.96512,50.8,0.56897,2.5235,0.53215,1.2493,0.53026,68.031,2.0524,0.00015535,0.00015544,7.3967e-05,8.558e-05,0.00063251
0.1685,0.00046802,0.083963,0.99946,49.244,0.55561,2.4548,0.53788,1.2322,0.53789,67.535,2.0047,0.00095633,0.00032597,0.00094581,0.00052879,0.00068708
0.169,0.00048239,0.082059,0.98995,47.916,0.57413,2.5349,0.47114,1.2246,0.56269,63.524,2.0104,0.0006713,0.00038449,1.7289e-05,0.00019504,0.00089954
0.1695,0.00026599,0.076341,0.93461,49.528,0.57199,2.6475,0.40631,1.1521,0.52836,64.264,1.9093,0.00041355,6.8773e-05,0.00090497,0.00035714,0.00057863
0.17,3.3682e-05,0.078248,0.91937,53.117,0.55617,2.9202,0.40059,1.175,0.52645,70.354,1.9265,0.00063469,9.262e-05,0.00070757,0.00082854,0.00017572
0.1705,0.00038161,0.074438,0.91368,50.487,0.53396,2.8306,0.40251,1.1692,0.51691,68.968,1.9265,0.000411,0.00039615,0.00065097,5.9359e-05,0.00051372
0.171,0.00079855,0.074436,0.93654,48.229,0.52609,2.6303,0.43495,1.2245,0.58939,63.818,2.0295,0.00072747,0.0002421,0.00044428,1.627e-05,0.00087926
0.1715,0.00076851,0.074434,0.98805,47.895,0.53698,2.596,0.41016,1.2875,0.5913,62.736,2.0409,0.00090824,0.00071935,0.0008341,0.00086456,0.00032962
0.172,0.00092541,0.078248,0.96709,52.478,0.54529,2.6494,0.38726,1.2665,0.60274,69.168,1.9894,0.00052751,4.0863e-05,0.00014297,0.00055158,0.00018324
0.1725,0.00076334,0.076341,0.96515,50.121,0.55347,2.7943,0.38153,1.2684,0.62944,67.471,1.9551,0.0002511,0.00082795,0.00036594,0.00098966,0.00030428
0.173,0.00095575,0.070619,0.93466,47.416,0.58478,2.6704,0.36244,1.3047,0.66378,63.394,1.9303,0.00031842,0.00096017,0.00026752,0.000672,0.0001551
0.1735,1.9475e-05,0.062993,0.91558,45.604,0.61216,2.4853,0.33765,1.3333,0.66759,60.937,1.9532,0.00039046,0.00092863,0.00020521,0.00032002,2.4554e-05
0.174,0.00059936,0.064899,0.90029,49.114,0.5739,2.6074,0.3548,1.2856,0.64089,65.674,1.9036,0.00033605,0.00087839,0.00099023,0.00059971,0.00035214
0.1745,0.00016153,0.066802,0.90603,46.9,0.55629,2.7142,0.38911,1.3199,0.6447,64.537,1.9322,0.00064028,0.00013303,0.0005681,0.00022656,0.0005986
0.175,0.0003511,0.070613,0.87359,44.589,0.54484,2.6131,0.39102,1.2703,0.618,61.082,1.8693,0.00089292,0.00053663,0.00099139,0.00069235,0.00089266
0.1755,0.00082922,0.070611,0.89454,45.766,0.56122,2.9279,0.44825,1.3085,0.65233,60.762,1.9379,0.00053771,0.00073764,0.00059645,0.00083366,0.00071234
0.176,0.00020262,0.064897,0.93464,48.015,0.56078,3.172,0.42915,1.297,0.61419,63.865,1.936,0.00018999,0.00013918,0.00062176,0.00039343,0.00074112
0.1765,0.00065709,0.066808,0.96323,50.484,0.57469,3.069,0.45775,1.3275,0.69811,68.457,2.0409,0.00038491,0.00063303,2.3062e-05,0.00074643,0.00072025
0.177,0.00017871,0.068713,0.97465,45.963,0.54854,3.0003,0.45966,1.3256,0.67904,63.471,2.0161,0.00095006,0.00061348,0.00062938,0.00061488,0.00027503
0.1775,7.4514e-05,0.072528,0.94988,46.216,0.53217,3.0099,0.44823,1.3371,0.65043,61.178,2.0352,0.00076718,0.00024741,0.00036097,0.00020807,0.00045363
0.178,0.00052344,0.078242,0.9289,47.691,0.4755,2.9775,0.44253,1.2799,0.57223,61.216,1.9818,0.00015841,0.00028756,0.00059001,0.0006286,0.00024182
0.1785,0.00078374,0.085868,0.90601,51.119,0.46271,3.1625,0.44253,1.2207,0.55697,67.513,1.9475,0.00014587,0.0001151,0.00078024,0.00065927,0.00068238
0.179,0.00016252,0.087769,0.9461,48.073,0.47741,2.9984,0.4292,1.2627,0.55506,64.098,1.9932,0.00038281,0.00026928,7.613e-06,0.00024008,0.00034088
0.1795,0.00073776,0.087773,0.93654,47.487,0.52621,2.8878,0.44258,1.2932,0.58367,62.095,2.0791,0.00064695,0.00046592,0.00017764,8.2784e-05,0.00037715
0.18,0.00047158,0.089685,0.98231,49.581,0.55729,2.7199,0.45783,1.3733,0.64852,63.163,2.1783,0.00099072,0.00043034,0.00040201,0.00049156,0.00056072
0.1805,0.000594,0.087779,0.948,50.579,0.52947,2.6627,0.41394,1.3066,0.62754,67.295,2.0905,0.0007124,0.00018445,0.00072358,0.00080312,0.00031296
0.181,0.00087877,0.087775,0.92317,49.524,0.57131,2.5101,0.39869,1.3504,0.63899,66.931,2.0791,0.00054184,0.00088334,5.0192e-05,0.00075596,1.8575e-05
0.1815,0.0003706,0.091586,0.91174,46.89,0.56436,2.5387,0.38344,1.3123,0.5646,61.927,2.0238,4.4095e-05,0.00027289,0.00032673,0.00089574,0.00035018
0.182,0.00041227,0.089679,0.92323,50.212,0.61025,2.3652,0.38151,1.3314,0.60657,64.951,2.1115,0.00048079,0.00053183,0.00078038,0.00034836,0.00050576
0.1825,0.00072014,0.083958,0.88317,52.587,0.59555,2.4262,0.43872,1.2722,0.59703,70.608,2.0352,0.00021803,0.00022947,0.0004956,0.00086622,0.00094995
0.183,6.4639e-05,0.087783,0.89651,50.895,0.59623,2.3633,0.43298,1.278,0.6428,69.964,2.0657,0.00065557,4.0263e-05,0.00061242,0.00082804,0.00051972
0.1835,0.00017765,0.085878,0.90415,48.646,0.5555,2.2698,0.43299,1.2799,0.62754,64.466,2.0524,0.00043241,0.00033912,0.00033712,0.00075405,0.00014305
0.184,0.00031024,0.085886,0.90983,48.005,0.60497,2.2412,0.5131,1.3142,0.66187,63.165,2.142,0.00066385,0.00016301,0.00071598,6.0341e-05,0.000207
0.1845,0.00072425,0.093518,0.96516,53.134,0.58983,2.4262,0.46732,1.3161,0.68476,70.522,2.1535,0.00078716,0.0003422,0.00039316,8.6003e-05,0.00019531
0.185,0.00086925,0.087792,0.98234,51.376,0.607,2.5464,0.47874,1.3276,0.71147,70.154,2.1935,0.00024614,0.00045177,0.00099283,0.00069248,0.00068795
0.1855,0.00038269,0.087794,0.98423,49.301,0.59667,2.5082,0.47302,1.3485,0.74961,64.392,2.1954,8.6608e-05,4.9458e-05,0.00022978,0.00078893,0.00074019
0.186,0.00060655,0.087798,0.95183,47.048,0.56313,2.4186,0.45585,1.3428,0.75343,59.877,2.184,0.00065756,0.00096443,0.00031039,0.00039734,0.00062706
0.1865,0.00085823,0.085888,0.90416,50.699,0.52621,2.6265,0.45965,1.2971,0.7458,64.312,2.1439,0.00042097,4.8243e-05,0.00036004,5.0397e-05,0.00064373
0.187,0.00055935,0.085888,0.87361,49.316,0.50321,2.6437,0.46156,1.2417,0.68858,64.194,2.0028,0.00063115,0.0005054,0.00028478,0.00034512,0.0009747
0.1875,0.00057284,0.087796,0.96326,46.886,0.51791,2.451,0.42534,1.2761,0.71719,60.461,2.0981,2.1079e-05,0.00056002,0.00084153,0.00022699,0.00031661
0.188,0.00097489,0.083973,1.0186,47.939,0.53821,2.533,0.44444,1.3123,0.721,60.981,2.1249,0.00088519,0.00019128,0.00064687,0.0008019,0.00085565
0.1885,0.00046787,0.083969,1.091,50.367,0.56682,2.5941,0.45398,1.3943,0.77631,63.37,2.245,1.6921e-06,0.0005235,0.00058055,0.00010812,0.00077474
0.189,0.00071841,0.080154,1.0548,49.719,0.52375,2.6265,0.3891,1.3581,0.74008,64.903,2.1439,0.00069439,0.00014061,0.00023804,0.00098571,7.0335e-05
0.1895,0.00011854,0.070611,1.0338,48.334,0.51858,2.6513,0.38147,1.3772,0.71337,62.519,2.1401,0.00051926,0.00019995,0.00039218,0.00061919,0.00060981
0.19,0.00070229,0.070613,1.0014,46.684,0.4976,2.8058,0.37386,1.3047,0.65615,60.808,2.0371,0.00027515,0.00081197,2.642e-05,0.00018874,0.00029646
0.1905,0.00092189,0.076333,1.0968,51.439,0.515,2.7886,0.38912,1.3657,0.6657,66.997,2.1325,0.00039037,0.00079903,7.3293e-05,0.00014376,0.00032168
0.191,0.00052768,0.078236,1.0853,52.263,0.50916,2.9355,0.39293,1.2799,0.61801,70.629,2.0695,0.00021317,8.2347e-05,2.6707e-05,0.00062336,0.00040532
0.1915,0.00086846,0.074428,1.1082,51.431,0.54035,2.7486,0.42538,1.2837,0.59702,69.656,2.0772,0.00037681,0.00067871,0.00096588,0.00097919,0.00092032
0.192,0.00055707,0.074428,1.1197,49.126,0.55382,2.781,0.43684,1.3104,0.5913,66.288,2.1325,0.00041966,7.9099e-05,0.00040192,0.00023637,0.00064514
0.1925,0.00090932,0.08014,1.1215,52.344,0.5518,2.7123,0.46927,1.3771,0.62563,69.233,2.2355,0.00045076,0.00084863,2.2963e-05,0.0009697,0.00056884
0.193,0.00047041,0.080144,1.0586,54.78,0.55057,2.8764,0.47116,1.3867,0.63136,73.942,2.2717,0.00072601,0.00027762,0.00057356,0.00056291,0.0006278
0.1935,0.00024412,0.08587,0.99377,52.179,0.56348,2.821,0.51119,1.3333,0.60466,72.599,2.1878,0.00022003,6.1407e-05,0.0008173,0.00055866,1.4919e-06
0.194,0.00073379,0.085864,0.98994,53.981,0.53407,2.9393,0.49212,1.2913,0.58367,71.104,2.142,0.00085681,0.00013935,0.00013603,8.2302e-05,0.00016127
0.1945,0.00031887,0.087773,0.96707,49.703,0.50681,2.7657,0.48639,1.2494,0.56461,65.157,2.0772,0.00094294,0.00047955,0.00093538,0.00081581,0.00020739
0.195,0.00051474,0.091588,0.98616,55.538,0.50828,2.7886,0.46348,1.2856,0.57414,72.495,2.0981,0.00081829,0.00097437,0.00033902,0.00096949,0.00073993
0.1955,9.4891e-05,0.085864,0.88502,51.79,0.5214,2.8325,0.42345,1.175,0.50738,69.765,1.9246,0.00088961,0.00041313,0.00077479,0.0005251,0.00072659
0.196,0.0003897,0.082051,0.88312,51.62,0.54429,2.6799,0.44254,1.2131,0.51691,68.06,1.9112,0.00011419,4.8388e-05,0.00056501,0.00036327,0.00084799
0.1965,0.00066833,0.099214,0.88312,49.228,0.51119,2.6704,0.42537,1.2207,0.53599,65.819,1.9112,7.6745e-05,0.00013936,0.00071254,0.00034855,0.00084455
0.197,0.00094225,0.10112,0.94413,54.043,0.57076,2.8001,0.38148,1.3294,0.61609,71.598,2.0772,0.00080146,0.00056647,0.00016621,0.00053248,0.00038234
0.1975,3.6499e-05,0.093495,0.91365,51.371,0.57334,2.9126,0.38146,1.2741,0.56078,69.468,1.9684,0.00035479,0.00090017,0.00028867,0.00079333,0.00097716
0.198,0.00042519,0.087773,0.9518,48.019,0.58478,2.8458,0.34142,1.2799,0.55697,62.319,1.9818,0.0007953,0.00048628,0.00052976,0.00017061,0.00083882
0.1985,0.00089948,0.087773,0.92508,46.862,0.55796,2.8802,0.28611,1.236,0.57223,57.842,1.8883,0.00013511,0.00082366,0.0007152,0.00077505,0.00054337
0.199,4.7392e-05,0.083967,0.91367,49.108,0.61351,2.987,0.32807,1.3047,0.61801,62.445,1.9837,0.00066663,0.00050591,0.00068586,0.00085129,0.00049794
0.1995,0.00011408,0.083971,0.91556,52.42,0.63314,3.0042,0.35668,1.2761,0.63136,68.923,1.9551,0.00084448,0.00027911,0.00072085,0.00037506,0.0009018
0.2,0.00050156,0.082065,0.93461,46.686,0.62977,2.7676,0.38721,1.3047,0.65996,60.049,2.0142,0.00011583,0.00055235,0.0003914,8.482e-05,0.00072046
0.2005,6.9774e-05,0.082069,0.94035,46.97,0.60767,2.6456,0.4616,1.3161,0.65424,58.679,2.0314,0.00076704,0.0007698,0.00094804,0.00053038,0.00080711
0.201,0.00036039,0.083977,1.009,50.342,0.61339,2.926,0.46732,1.4038,0.69429,61.371,2.2221,0.00071708,0.00017865,0.00017341,0.00047742,0.00031319
0.2015,0.00012652,0.068724,1.009,48.748,0.63438,2.9088,0.41582,1.4363,0.72099,61.663,2.2832,0.00020723,0.00085363,0.00072844,0.00052875,0.00016008
0.202,0.00031088,0.068724,0.97279,48.885,0.57671,2.8306,0.42535,1.3619,0.68858,60.463,2.1821,1.8386e-05,0.0003327,0.00055909,0.00038739,0.00071111
0.2025,0.00056348,0.072538,0.97467,47.86,0.58299,2.9088,0.36434,1.3714,0.69811,60.058,2.1744,0.00062795,0.00053521,0.00055377,0.0002011,0.00089529
0.203,0.00075909,0.082077,0.98804,52.825,0.56964,2.7619,0.37197,1.3695,0.73435,66.48,2.1725,0.00018641,0.00017127,0.00070132,7.5564e-05,0.00026594
0.2035,0.00060993,0.080164,1.0205,53.18,0.57031,2.7848,0.43109,1.3981,0.74008,70.789,2.3003,0.00068796,0.0001976,0.00096909,0.00038474,0.00085954
0.204,0.00080257,0.087783,1.0262,52.903,0.5555,2.6456,0.39677,1.339,0.71718,69.918,2.163,0.00049459,0.00046162,0.00068912,0.00080133,0.00052804
0.2045,0.00029196,0.085872,1.0223,50.219,0.57648,2.6646,0.41968,1.36,0.72863,65.771,2.224,0.00037979,0.00049938,0.0004466,8.666e-05,0.00098102
0.205,0.00081205,0.087773,0.99757,55.407,0.57401,2.596,0.40442,1.2894,0.68285,71.766,2.1439,0.00044112,0.00085408,0.00065596,3.7015e-05,0.00081322
0.2055,0.00031157,0.089675,1.0414,55.387,0.62214,2.7447,0.34147,1.3733,0.721,74.297,2.3022,0.00034761,0.00083721,0.00038449,0.00090819,0.00098908
0.206,0.00034186,0.09158,1.0319,53.552,0.58848,2.5998,0.3262,1.2856,0.69811,73.95,2.2011,0.00087616,5.8913e-06,3.4298e-05,0.00038438,0.00020825
0.2065,0.00046491,0.099203,1.072,55.379,0.58153,2.617,0.33764,1.2703,0.69811,72.147,2.1649,0.00074951,0.00099122,0.00075973,0.00030981,0.00056513
0.207,8.5844e-05,0.10492,1.0033,52.237,0.54708,2.5254,0.32239,1.1959,0.65424,69.744,2.0047,5.5587e-05,0.00081397,0.00066272,0.00082917,0.0009444
0.2075,0.00040628,0.10683,1.0052,56.15,0.56694,2.6704,0.35098,1.196,0.66187,73.875,2.0409,0.00029887,0.00096951,0.0002615,0.00014653,0.00040815
0.208,0.00012233,0.10492,1.0128,51.191,0.58983,2.5197,0.33955,1.2017,0.65234,70.013,2.0028,0.00016111,0.00066466,0.00029165,0.00066024,0.0007643
0.2085,0.00033066,0.099208,1.0529,51.896,0.63168,2.4586,0.33194,1.2226,0.64661,68.68,1.9761,0.00017084,0.00051435,0.0009727,0.00057975,3.0144e-05
0.209,0.00022478,0.097306,1.051,48.728,0.63684,2.3041,0.37582,1.1959,0.64661,65.191,1.9913,0.00087439,0.00030414,0.00078616,0.00087355,0.00023487
0.2095,0.00063834,0.10303,1.1177,53.625,0.61395,2.472,0.35292,1.2455,0.68095,70.309,2.0524,0.00030492,0.00059526,0.00099537,9.0152e-05,6.2522e-05
0.21,0.00099648,0.099222,1.1196,49.524,0.64368,2.514,0.35291,1.3066,0.70002,66.479,2.0695,0.00039824,0.00075014,0.00021331,0.00044113,0.0005852
0.2105,0.00023365,0.10876,1.0853,48.481,0.62798,2.3385,0.37579,1.2608,0.70384,63.055,2.0276,0.00033935,0.00062341,0.00037964,0.00033359,0.00070844
0.211,0.00030872,0.11067,1.0529,46.169,0.66545,2.2603,0.37961,1.2951,0.73626,59.499,2.0676,0.00023142,0.00059172,0.00016089,0.00072244,0.00035705
0.2115,0.00057203,0.10495,0.99948,49.095,0.6705,2.2908,0.39867,1.2722,0.73435,64.668,2.0199,0.00020381,0.0003882,0.00018756,0.00072191,6.9201e-05
0.212,0.00085826,0.10495,1.0472,49.503,0.65861,2.3614,0.45014,1.3467,0.7706,65.277,2.1725,6.0053e-05,0.00076652,0.00025797,0.00048154,0.00017216
0.2125,0.00056398,0.10686,1.0491,45.53,0.64066,2.1706,0.44062,1.3295,0.74389,60.093,2.1077,0.00013258,0.00010752,0.00094497,0.00058865,4.8687e-05
0.213,0.00096834,0.10495,1.0281,46.608,0.63044,2.3576,0.52455,1.2856,0.70192,59.427,2.1001,0.00036905,0.00071544,0.00040221,0.00011073,0.00016841
0.2135,0.0007075,0.10495,0.95182,48.719,0.5886,2.411,0.4845,1.215,0.66378,61.819,1.9742,0.00043697,1.3502e-05,0.00038542,0.0001169,1.6593e-05
0.214,0.00021579,0.10686,1.0147,50.482,0.59488,2.4186,0.45396,1.3295,0.70383,65.979,2.1535,0.00052741,0.00085704,0.00015356,2.7895e-06,0.00055494
0.2145,0.00043843,0.10876,1.0109,46.48,0.62989,2.2259,0.43108,1.3295,0.65233,61.134,2.1401,0.00032516,0.00096687,0.00053155,0.00089039,7.7957e-05
0.215,0.00071265,0.10876,1.0453,45.591,0.62372,2.3709,0.41772,1.3161,0.68285,58.746,2.1592,0.00046658,0.00042057,0.00049685,0.00046674,0.00057095
0.2155,0.00069218,0.099216,0.99378,47.445,0.60588,2.4586,0.4387,1.2646,0.65233,60.119,2.0314,0.00017086,0.00013464,0.00019785,0.00015611,0.00010245
0.216,0.00076221,0.093502,0.96709,51.512,0.60274,2.514,0.52833,1.2513,0.64661,66.904,2.0009,0.00074299,0.0008223,0.0005417,0.00022928,0.00017459
0.2165,0.0002067,0.093498,0.95566,48.521,0.62507,2.5654,0.5474,1.2856,0.61991,63.362,2.0466,1.4675e-05,0.00082612,0.00019749,0.00010171,0.00041454
0.217,0.00063734,0.083963,0.94797,46.369,0.68778,2.6398,0.53216,1.2741,0.60083,59.639,2.0199,0.0003996,0.00083724,0.00054659,4.5514e-05,0.00080445
0.2175,0.00045651,0.074428,0.96897,49.634,0.66815,2.6627,0.52073,1.3066,0.61991,62.433,2.0581,0.00077278,0.0005981,0.00099718,0.00059873,0.00077371
0.218,0.00019724,0.076341,0.96326,50.611,0.6631,2.6971,0.45588,1.3409,0.64089,66.925,2.1039,0.00016843,8.4653e-05,0.00094357,0.0005962,0.00033404
0.2185,0.00026405,0.08016,0.98231,49.419,0.66366,2.8611,0.47877,1.379,0.68285,66.383,2.1916,0.00080904,0.00037176,0.00075709,0.00010436,0.00049047
0.219,0.00058894,0.074434,0.91939,47.777,0.64335,2.9813,0.46924,1.3237,0.62945,61.618,2.0772,0.00062778,0.00036439,0.00074995,0.00035443,0.0002139
0.2195,0.00032427,0.066808,0.92702,49.466,0.64212,2.9336,0.48451,1.3276,0.65234,63.625,2.0848,0.00037827,0.00015598,0.00068947,0.00056817,0.00064173
0.22,0.0008462,0.068718,0.9022,52.513,0.60509,3.0251,0.49595,1.3085,0.61419,69.702,2.0428,0.0007463,0.00031093,0.00025421,0.0004331,0.00066198
0.2205,0.0002026,0.072538,0.94607,50.628,0.58613,2.8878,0.48451,1.3829,0.65424,68.96,2.163,0.00040251,0.00051587,4.3617e-05,0.00032809,0.00080519
0.221,0.00052993,0.078255,0.98802,47.99,0.55371,3.048,0.44639,1.3867,0.64089,63.808,2.1191,0.00085245,0.00090612,0.00098016,0.00032346,0.00055688
0.2215,0.00051196,0.074442,1.0013,48.364,0.52689,2.8611,0.45595,1.3638,0.6695,63.257,2.1001,0.00095,0.00088864,0.0001637,0.00040552,0.00063752
0.222,0.00086324,0.078259,0.99374,52.982,0.47808,2.987,0.42161,1.3237,0.67713,69.548,2.0352,0.00019211,0.00018261,0.00062915,0.00080359,0.00031601
0.2225,0.00011747,0.082071,1.0414,49.801,0.50411,2.8859,0.45783,1.3638,0.721,67.639,2.1363,0.00095203,0.00072883,0.00089736,0.00015633,0.00013127
0.223,0.00061411,0.07825,1.0548,47.914,0.48369,2.7867,0.47879,1.3752,0.7477,63.436,2.1249,0.00016677,0.00079702,0.00025306,0.00078517,0.00088231
0.2235,0.00044039,0.080148,1.0891,45.982,0.49907,2.4987,0.45969,1.3886,0.75152,60.871,2.1496,0.00053072,0.00058081,0.00059605,4.2503e-05,0.00016132
0.224,0.00024936,0.087769,1.1139,49.987,0.49839,2.678,0.49209,1.3504,0.76296,65.91,2.1039,0.00039548,0.00044347,0.0005203,0.00077987,0.00020517
0.2245,0.00057277,0.091586,1.0643,48.711,0.4856,2.7219,0.49398,1.3066,0.76296,65.102,2.0085,0.00046921,0.00014813,0.00051678,9.8773e-05,0.00055424
0.225,0.00027029,0.089677,1.03,46.069,0.50614,2.5712,0.48254,1.2932,0.75534,61.689,2.0219,0.00079176,0.00012784,0.00035969,0.00015403,0.00061421
0.2255,0.00029565,0.083952,1.0147,47.048,0.52756,2.781,0.48446,1.2837,0.72863,62.078,2.0276,0.00079649,0.00078425,0.00034737,3.6643e-05,0.00088097
0.226,0.00087008,0.080142,1.0338,49.489,0.5491,2.6322,0.44631,1.2512,0.73054,65.027,2.0409,0.00070217,0.00035136,0.00040855,0.00010815,0.00054223
0.2265,0.00013178,0.085868,1.0415,49.013,0.539,2.7638,0.40242,1.2303,0.71337,66.938,1.9971,0.00084124,0.00011544,0.0008679,0.00093415,0.00044161
0.227,0.00031529,0.083958,1.0453,46.918,0.5528,2.5693,0.41386,1.2646,0.71909,63.909,2.0505,0.00093409,0.0001144,0.0001657,0.00092934,1.4305e-05
0.2275,0.00025561,0.089681,1.0014,46.664,0.55538,2.7276,0.40244,1.2322,0.70384,62.816,2.0142,0.00081515,0.00085278,0.00079719,0.00077033,0.00020072
0.228,0.00048915,0.093489,0.99188,49.892,0.56952,2.8039,0.39672,1.2265,0.65615,65.616,1.9971,0.00036091,7.0783e-05,0.00012691,0.00054961,3.0705e-05
0.2285,0.00056712,0.085868,0.96514,51.967,0.54652,2.9851,0.37574,1.1788,0.61419,69.918,1.9208,0.0002047,0.00042649,0.00036696,0.00024463,5.1666e-05
0.229,0.00081636,0.083965,0.99758,48.694,0.56952,2.8554,0.36049,1.2493,0.65234,66.933,1.9894,0.00048005,0.00064153,0.00057434,0.00018631,0.00031217
0.2295,3.2461e-05,0.085876,1.0396,47.536,0.56392,2.8077,0.41583,1.2551,0.66569,64.008,2.0352,0.00052765,0.00022198,0.0008833,0.00045341,0.00075235
0.23,0.00032606,0.091592,1.0205,48.223,0.5758,2.7047,0.47116,1.2417,0.64852,63.585,1.9761,0.00040678,7.914e-05,0.00059093,0.00074556,1.5405e-05
0.2305,0.0005023,0.095409,1.0586,52.839,0.58927,2.6646,0.43873,1.2226,0.62563,70.656,1.9303,0.00047347,0.0005983,0.00027483,0.00089097,0.00066944
0.231,0.00082308,0.089691,1.03,50.38,0.63449,2.6437,0.45779,1.2894,0.62563,68.968,1.9608,0.00054594,0.00058317,0.00048176,0.00013294,0.00075588
0.2315,0.00033542,0.083965,1.0414,51.332,0.67634,2.6189,0.47497,1.3199,0.64279,66.391,2.0028,0.00071208,0.00050392,0.00054057,0.00065923,0.00052739
0.232,0.00037481,0.082057,1.072,48.519,0.65873,2.5731,0.5131,1.3371,0.65615,62.28,2.0104,0.00065315,0.00014852,0.00042557,0.00078903,0.00095495
0.2325,0.00071571,0.074425,1.0815,54.478,0.66636,2.5616,0.53025,1.3276,0.62182,70.65,1.9932,0.00032188,0.00085264,0.00030634,0.00039352,0.00071581
0.233,0.00048102,0.068711,1.0185,52.202,0.63886,2.5883,0.53215,1.236,0.60465,69.584,1.9074,0.00049373,0.00027246,0.00092434,0.00058818,0.00010626
0.2335,0.00078283,0.070621,1.0396,50.892,0.65357,2.514,0.55314,1.2627,0.61037,66.833,1.9646,0.00053567,0.00042489,0.00078537,0.00081394,0.00058888
0.234,0.00072837,0.064903,1.0186,54.311,0.61856,2.4892,0.58748,1.2436,0.59702,70.463,1.9684,2.5336e-05,0.00022024,4.0773e-05,7.7223e-05,0.00094145
0.2345,0.00078698,0.062991,0.97277,57.598,0.59174,2.7276,0.51308,1.1997,0.54361,75.773,1.8807,0.00094707,0.0001552,0.00090275,0.0006067,0.00056792
0.235,0.0006654,0.053462,0.99567,55.256,0.56515,2.7791,0.45012,1.1998,0.53217,73.265,1.8807,0.00053901,0.00017856,0.00022117,0.00099509,0.00059957
0.2355,0.00094466,0.057273,1.0204,50.613,0.56313,2.8821,0.44249,1.2532,0.58748,65.605,1.9684,0.00066495,0.00099934,0.00011346,0.00043841,5.9105e-05
0.236,0.00045883,0.064903,1.0414,49.024,0.51532,2.8077,0.43487,1.2398,0.60274,60.707,1.9951,0.00036942,0.0005221,3.8304e-06,0.00043973,0.00063268
0.2365,0.00033673,0.068713,1.0033,51.633,0.4792,2.9031,0.41387,1.1959,0.58748,66.023,1.9818,0.00045122,0.00093727,0.00019572,0.000485,0.00033748
0.237,0.00028647,0.070625,1.0033,57.295,0.52677,2.9946,0.38908,1.1883,0.57603,75.549,2.0028,0.00094572,0.0003973,0.00076068,0.00079127,0.00039739
0.2375,0.0009988,0.076345,0.97467,50.354,0.5611,2.9107,0.37956,1.1883,0.58748,64.253,1.9646,0.0004477,0.00076985,0.00088673,0.00021477,0.00089247
0.238,5.7324e-05,0.076349,1.0453,51.659,0.62551,2.863,0.42727,1.2665,0.63135,63.278,2.0428,0.00022681,0.00070426,0.00097488,0.00081929,0.00083593
0.2385,0.00099905,0.076347,0.99947,53.343,0.60251,2.8859,0.43492,1.257,0.61609,65.384,1.9818,0.00093628,0.00014859,0.00037564,0.00028947,0.00057404
0.239,0.00023538,0.078257,1.009,56.115,0.6457,2.7638,0.37579,1.2379,0.60083,71.689,1.9684,0.00090898,0.00015098,0.00083637,0.00014157,0.00031805
0.2395,0.00017971,0.083983,1.0281,52.407,0.65019,2.6341,0.37959,1.2761,0.6161,65.968,2.0104,0.00089311,0.00020591,0.00029055,1.241e-05,0.00023449
0.24,0.0009742,0.093516,1.0853,53.755,0.68183,2.7314,0.41585,1.3848,0.68476,66.777,2.2011,0.00050798,0.00051823,5.5728e-05,0.00097687,0.00015323
0.2405,6.8367e-05,0.091606,1.133,57.938,0.70988,2.6322,0.45588,1.4305,0.69048,70.269,2.2393,0.00083533,0.00026432,0.00089395,0.00030913,7.7304e-05
0.241,0.00091234,0.10304,1.1178,59.292,0.6935,2.8096,0.48829,1.3924,0.67332,74.038,2.1821,0.00015219,0.00058919,0.0006998,0.00084029,0.00077181
0.2415,0.00092649,0.099228,1.1063,65.1,0.69597,2.821,0.49783,1.3676,0.65806,78.52,2.0886,6.5112e-05,0.00095118,0.00037933,0.00054431,0.00031976
0.242,0.00018411,0.10114,1.1025,67.407,0.68464,2.8897,0.50165,1.3638,0.64281,80.668,2.121,0.00065059,0.00040238,0.00094906,0.00065566,0.00083436
0.2425,0.00028855,0.10114,1.1388,85.552,0.63763,2.8191,0.48639,1.3409,0.63709,102.06,2.1401,0.00043594,6.9711e-05,0.00057253,0.0004334,0.00050001
0.243,4.3853e-05,0.10304,1.0682,88.462,0.58602,2.8687,0.40627,1.2837,0.60656,104.33,2.0619,0.00086083,0.00065498,0.00049647,0.00017887,0.00071861
0.2435,0.00013756,0.10304,1.1254,98.562,0.61407,2.9374,0.38338,1.3123,0.62563,114.97,2.1687,0.00048482,0.00089484,0.00065835,0.00076338,0.00048062
0.244,0.00078301,0.10685,1.1006,97.045,0.60711,3.0423,0.40055,1.3371,0.60846,114.42,2.184,0.00010001,0.00086583,0.00062404,7.446e-06,0.00089699
0.2445,0.00014074,0.099224,1.1368,104.1,0.64133,2.9622,0.41773,1.3485,0.65233,126.26,2.2488,0.00059897,0.00041778,0.00027576,0.00029511,0.00048995
0.245,0.00091031,0.095407,1.0911,109.54,0.60465,3.2426,0.43106,1.2551,0.62754,132.24,2.0943,0.00093847,0.00070945,0.00037312,0.0007533,0.00060303
0.2455,0.00058501,0.093506,1.0262,108.5,0.58367,3.0366,0.39483,1.1864,0.618,130.15,1.999,0.00073613,0.00012405,0.00017012,0.00069505,0.00081192
0.246,0.00061095,0.080168,0.97468,115.09,0.56829,3.0328,0.33382,1.1254,0.57986,130.8,1.8826,0.00042317,0.0009261,0.00034526,4.4684e-05,0.00014576
0.2465,0.00072065,0.080168,1.0071,110.85,0.5729,2.7619,0.31095,1.1941,0.60274,122.91,2.0161,0.00046459,0.00071809,0.00046848,0.00019992,0.0004177
0.247,0.00080132,0.074446,0.97089,116.57,0.52644,2.7753,0.28615,1.1597,0.60655,127.52,1.9112,0.0008969,0.00094992,0.00042254,0.00046109,4.1753e-05
0.2475,0.00012015,0.074442,0.9041,110.32,0.53205,2.8668,0.27281,1.1692,0.61227,120.91,1.8445,0.00059333,0.0009648,0.00042837,0.00024106,0.00043044
0.248,0.00076904,0.076345,0.93271,109.7,0.53328,2.7486,0.30333,1.1959,0.60083,119.12,1.8616,0.00057928,1.5852e-05,0.00032306,0.00037721,0.00031794
0.2485,0.0009308,0.080156,0.95558,100.73,0.57457,2.5407,0.35101,1.2951,0.63326,106.2,1.9608,0.00065268,0.00018413,0.00052586,0.00017994,0.00022622
0.249,0.00098997,0.08015,1.0033,98.716,0.5675,2.5121,0.32622,1.3619,0.71527,100.93,2.0714,0.0002866,0.0003047,2.3304e-05,0.0008972,0.00071968
0.2495,0.0004858,0.07824,0.98614,95.621,0.54484,2.6151,0.38342,1.3981,0.70765,96.019,2.0829,0.00078981,0.00084313,0.00030937,0.00083392,5.9542e-05
0.25,0.00068303,0.076335,0.96324,89.742,0.54215,2.3232,0.34719,1.3657,0.68476,89.644,2.0428,0.00058274,0.00075472,0.00037006,0.00042008,0.00012804
0.2505,0.00077143,0.080144,0.92129,87.134,0.54977,2.4663,0.36818,1.3295,0.66378,89.01,2.0028,0.0001714,3.4703e-05,0.00063039,0.00082758,0.00017517
0.251,0.00060682,0.082049,0.95948,83.923,0.5849,2.472,0.3777,1.3924,0.72673,91.043,2.1058,0.00063683,5.7746e-05,0.00062139,0.00064022,0.00034892
0.2515,0.00063776,0.085862,0.9499,76.889,0.56122,2.5807,0.38723,1.3848,0.70574,90.771,2.0371,0.00042497,0.00051082,2.8168e-05,0.00090163,0.00025431
0.252,0.00040281,0.095389,1.0186,68.631,0.59365,2.4834,0.39485,1.4782,0.74389,79.852,2.1725,0.00052977,0.00039973,0.00099886,0.00072088,0.00035204
0.2525,0.0005102,0.09158,1.0567,58.071,0.59444,2.5483,0.38341,1.4897,0.74008,68.44,2.2221,0.00049581,0.00045044,0.0004243,0.00016923,0.00021819
0.253,6.9404e-05,0.089677,1.1101,58.117,0.62742,2.6398,0.35669,1.5431,0.78967,70.095,2.2851,0.00025492,0.00070619,0.00070727,0.00083694,0.00022809
0.2535,0.00085366,0.082055,1.0663,55.618,0.57659,2.7505,0.30709,1.4573,0.73626,73.16,2.1325,0.00021859,1.0125e-05,0.00072607,0.0002141,0.00057126
0.254,0.00030658,0.076341,1.0358,54.04,0.55764,2.6875,0.3109,1.4191,0.67905,69.344,2.0371,0.00016687,0.00095041,0.00074076,0.00075877,0.00098791
0.2545,0.00052852,0.076339,0.95375,50.12,0.52756,2.6551,0.24035,1.2818,0.63517,63.188,1.8674,0.0006099,0.00037221,0.00081188,0.00070019,4.1705e-05
0.255,0.00092713,0.080154,1.011,54.202,0.5334,2.5292,0.227,1.3581,0.67714,66.867,2.0123,0.00065059,0.00063044,0.00077747,0.00075528,0.00051987
0.2555,0.00072383,0.072526,1.0224,55.656,0.50737,2.678,0.22317,1.3657,0.69239,71.775,2.0543,0.00064165,8.3347e-05,0.0003962,0.0005557,0.0007397
0.256,0.00032622,0.070613,0.98613,53.168,0.48874,2.7142,0.24034,1.3619,0.65615,70.547,2.0085,0.00090995,0.00099453,1.2204e-05,0.00051169,0.00049868
0.2565,0.00064031,0.076327,0.98421,54.658,0.50916,2.8287,0.28422,1.3447,0.66759,68.313,2.0714,0.0007407,0.00090624,0.00068317,0.00021716,0.000244
0.257,0.00033984,0.072518,0.98421,51.952,0.53205,2.7276,0.30521,1.3542,0.67141,67.182,2.1077,0.00086222,0.00082377,0.00040638,0.00028866,0.00019756
0.2575,0.00092322,0.074423,1.0109,55.28,0.51532,2.7753,0.32427,1.3561,0.68285,72.525,2.1802,1.751e-05,0.00015147,0.00043472,0.00017317,0.00081657
0.258,0.00029371,0.076329,0.97087,50.579,0.48055,2.6742,0.37577,1.3352,0.68095,70.152,2.1954,0.00021998,9.7284e-05,0.00041071,0.00033394,5.1895e-07
0.2585,0.00095661,0.080138,0.98804,50.216,0.47741,2.6532,0.38532,1.318,0.71719,66.65,2.1687,0.00086355,0.00065129,0.00049195,0.00063042,0.00016364
0.259,0.00015533,0.080135,0.94031,49.413,0.45452,2.6017,0.40822,1.1978,0.67714,66.282,2.0219,0.00033469,0.00078235,0.00070284,0.00019975,0.0005119
0.2595,0.00053866,0.083954,0.97848,54.609,0.48583,2.6665,0.40631,1.2494,0.65997,72.79,2.1554,0.00043743,0.00027903,0.00036641,0.00045677,0.00047884
0.26,0.00049735,0.082049,0.97274,51.355,0.51758,2.7772,0.41203,1.2551,0.65234,71.373,2.1191,0.00027348,0.000114,0.00057548,0.00048675,0.00073398
0.2605,0.00088668,0.083956,1.0338,48.925,0.55943,2.5769,0.41014,1.3352,0.68476,67.087,2.1992,0.00062729,0.00099614,0.00097567,0.00014626,0.00084426
0.261,0.00010662,0.089685,1.0719,48.164,0.55831,2.3022,0.3968,1.299,0.67523,66.274,2.2221,0.00031477,0.00038068,0.00037621,0.0009025,0.00077338
0.2615,0.00051438,0.082065,1.1234,53.096,0.55831,2.3613,0.36626,1.3352,0.68477,72.719,2.266,0.0007186,0.00076362,0.00037693,7.5209e-05,0.00060504
0.262,0.00035091,0.076349,1.0777,53.024,0.51949,2.4167,0.36053,1.2303,0.65043,73.464,2.1172,0.00029927,0.00013904,0.00073954,0.00014209,0.00030162
0.2625,0.0002746,0.076355,1.0396,50.744,0.54261,2.2908,0.35099,1.2151,0.65235,70.32,2.039,0.00072821,0.00011715,0.00041096,0.00096895,0.00010621
0.263,0.00073079,0.072545,1.0357,51.763,0.53991,2.2927,0.33575,1.1845,0.61801,70.911,1.9589,0.00024198,0.00069551,0.00056123,0.00029844,0.00080894
0.2635,0.00035477,0.078273,1.0395,55.398,0.56976,2.4014,0.38722,1.2398,0.63517,74.905,2.0581,0.00083846,0.00064685,0.00037103,0.00067446,0.0003057
0.264,0.00087376,0.08018,1.0262,58.91,0.60858,2.5273,0.42153,1.2932,0.67713,80.496,2.142,0.00054067,0.0006383,0.00066724,0.00032015,0.00061873
0.2645,0.00095625,0.076365,1.0242,57.447,0.60902,2.4625,0.42343,1.3161,0.70765,78.61,2.0924,0.00043007,5.2984e-05,0.00014154,7.6437e-05,8.9506e-06
0.265,4.9376e-05,0.078267,1.0376,58.334,0.58164,2.3404,0.46159,1.3085,0.70383,80.572,2.142,0.00011248,0.00026195,2.5791e-05,3.474e-05,0.00042987
0.2655,0.00092596,0.078267,1.0128,62.036,0.54361,2.4663,0.46349,1.2169,0.63326,82.575,2.0543,0.00026429,0.00088978,0.00036282,0.00059272,0.00036016
0.266,0.00011668,0.07254,1.0395,76.918,0.56503,2.8058,0.45585,1.2455,0.63707,102.19,2.0734,0.00011557,0.0007355,0.0002448,0.00087466,0.00033277
0.2665,0.00080149,0.078253,1.0319,77.971,0.58546,2.8954,0.43297,1.2646,0.66187,103.68,2.0562,0.00054275,7.1124e-05,0.00046314,0.00054141,0.00031393
0.267,0.00041075,0.082061,1.0453,82.56,0.58422,3.0042,0.40819,1.3085,0.67904,109.64,2.0791,0.00068998,0.0002534,0.00041067,0.00087555,0.00057853
0.2675,0.00095187,0.078246,0.96896,94.525,0.53328,3.0805,0.41391,1.2322,0.62754,121.74,1.9494,0.00042919,0.00030635,0.00012114,0.00023024,0.00078809
0.268,7.2045e-05,0.078242,1.0014,94.346,0.54731,3.3685,0.37957,1.257,0.64089,121.73,2.0257,0.00087922,0.00064024,0.00068964,0.0003134,5.284e-05
0.2685,0.00017767,0.074421,0.95753,93.344,0.52509,3.3456,0.3281,1.2207,0.62754,121.08,1.9322,0.000834,0.00085798,0.00051698,8.121e-05,0.00054256
0.269,0.00069848,0.074419,0.98038,88.408,0.54584,3.3532,0.35101,1.2836,0.66187,116.1,2.0123,0.00025632,0.00069314,0.00032451,0.00018385,0.00030595
0.2695,0.00054495,0.078228,0.99377,90.546,0.53396,3.2216,0.39871,1.2818,0.64089,118.55,2.0066,0.00073807,0.00043537,9.8973e-05,0.00060785,0.00088221
0.27,0.00023207,0.072512,0.94609,92.558,0.55112,3.4371,0.37962,1.2894,0.62372,119.72,1.9417,0.00052125,0.000924,0.00057524,0.00020747,0.00063642
0.2705,0.0009856,0.07251,0.87357,89.377,0.53642,3.2826,0.40631,1.2551,0.618,117.31,1.8788,0.00079033,0.00088113,0.00094624,0.00047976,1.9499e-05
0.271,0.00093558,0.072514,0.86216,73.286,0.50872,3.1319,0.44064,1.2932,0.66569,95.086,1.9036,0.00014441,0.00080953,0.00012924,7.473e-05,0.00074726
0.2715,0.00028218,0.070619,0.85452,65.819,0.49974,2.8668,0.4845,1.2398,0.63517,86.359,1.8464,0.00013624,0.00075004,0.00056998,0.0009102,0.00089752
0.272,0.00038275,0.07253,0.8545,63.669,0.51623,2.9508,0.49213,1.2226,0.62372,83.462,1.8464,0.00074998,0.00020341,0.00038611,0.00083808,0.00067221
0.2725,0.00030889,0.08016,0.89837,52.263,0.54238,3.0271,0.5112,1.2722,0.65615,70.78,1.9208,0.0004074,0.00098854,0.0009345,0.00059078,0.00096339
0.273,0.00020049,0.082065,0.89836,54.527,0.53666,2.8153,0.53027,1.2799,0.6695,74.108,1.8788,0.00048334,0.00011476,0.00099689,0.00047789,0.00019001
0.2735,0.00081393,0.078255,0.9384,52.261,0.52633,2.7104,0.59703,1.297,0.67522,68.51,1.9303,0.00085072,0.00090555,0.00051844,0.00063411,2.0945e-05
0.274,6.4269e-05,0.078255,0.97468,58.671,0.50939,2.7886,0.52835,1.2532,0.618,75.753,1.8788,5.3231e-05,0.00026944,0.00083143,0.00055182,0.00058139
0.2745,0.00077143,0.074444,0.97275,55.831,0.52768,2.947,0.51307,1.2665,0.67141,74.189,1.9913,0.00082504,0.00026708,0.00014258,0.00012234,0.000401
0.275,0.00099653,0.076349,0.99372,53.088,0.5582,2.7028,0.51498,1.2322,0.67713,71.221,2.0142,0.00048633,0.00037876,0.00062081,0.00044295,0.00048056
0.2755,0.00053886,0.078261,1.0491,51.836,0.58502,2.6799,0.46922,1.2856,0.71718,69.17,2.081,0.00020353,0.00044589,0.00084106,0.00053289,0.00038012
0.276,0.000125,0.076351,1.0128,52.582,0.61025,2.5788,0.45395,1.2264,0.64661,71.003,2.0295,0.00061704,0.00061631,0.00015096,0.00068946,0.00018568
0.2765,0.00026754,0.072532,0.98991,55.161,0.61025,2.8306,0.41391,1.2474,0.67713,72.222,2.0581,0.00012378,0.00020583,0.00027176,0.00090103,0.00085963
0.277,0.00080899,0.072528,0.94989,53.413,0.58613,2.7314,0.42536,1.2188,0.6695,68.794,2.0085,0.00026643,0.00011526,0.00022423,0.00034649,0.00015602
0.2775,0.00063832,0.068711,0.9594,56.103,0.58971,2.6894,0.46544,1.2436,0.68857,68.93,2.0657,0.00058562,0.00035174,0.00026191,0.00091506,0.00074255
0.278,0.00071222,0.072528,0.97275,53.696,0.62214,2.6952,0.44636,1.2379,0.71337,63.547,2.1458,0.00037856,0.00030412,0.00031168,0.00062771,0.00094661
0.2785,0.00085832,0.074438,0.9575,53.096,0.62865,2.7295,0.43107,1.1998,0.67522,65.949,2.1325,0.0006787,0.00056667,0.00045986,3.0188e-05,3.6698e-05
0.279,0.00088917,0.083969,0.97655,48.894,0.59353,2.6379,0.42344,1.1883,0.70383,58.832,2.1077,0.00064621,0.00045057,0.00089533,8.5884e-05,0.00052137
0.2795,0.0008208,0.089687,1.03,47.32,0.57199,2.8191,0.4101,1.2341,0.65615,53.209,2.0886,0.0005692,0.00036281,5.9984e-05,1.7667e-06,0.0002126
0.28,0.00041803,0.085876,1.0567,49.33,0.53777,2.8592,0.39866,1.2455,0.65615,53.619,2.1058,0.00088697,0.00039778,0.00029252,0.00051771,0.00023918
0.2805,0.00036681,0.083969,1.0128,50.254,0.52868,3.1014,0.40055,1.2188,0.63708,57.96,2.0619,0.00095424,0.00091027,0.00024023,6.8061e-05,0.00013672
0.281,0.00073065,0.082061,1.0452,51.202,0.51421,3.1911,0.40247,1.236,0.66187,59.576,2.1382,3.6039e-05,7.7041e-05,0.00069643,0.00094524,0.00034195
0.2815,0.0002064,0.078248,1.0452,50.292,0.4939,3.0003,0.44825,1.2207,0.63136,59.129,2.102,0.00013677,0.00093833,9.7599e-05,0.00082015,0.00045438
0.282,0.00071407,0.078246,1.0261,49.594,0.50455,2.8115,0.45778,1.2417,0.63326,58.097,2.1592,0.00099737,0.00044716,0.00028009,0.00061049,0.00075304
0.2825,6.1787e-05,0.082063,1.0357,48.362,0.50479,2.8153,0.43677,1.2551,0.61037,61.611,2.1744,0.00046193,0.00089983,0.00065052,1.4137e-05,0.00048827
0.283,0.00029306,0.087781,1.0414,47.483,0.51242,2.7676,0.43487,1.3028,0.61419,63.036,2.205,0.00024362,0.00065181,0.00096276,4.4158e-05,0.00030937
0.2835,0.00024057,0.09159,1.049,47.866,0.51107,2.823,0.39864,1.3008,0.65233,62.977,2.1668,2.0244e-05,0.00018227,0.00022052,0.00022702,0.00058066
0.284,0.00080198,0.082063,1.0166,46.468,0.53789,2.6971,0.39674,1.3009,0.62182,61.432,2.1554,0.00083522,9.5847e-05,8.5247e-05,0.00045882,0.00013002
0.2845,0.0006192,0.080158,0.97658,50.084,0.55506,2.5388,0.40439,1.2379,0.60656,67.837,2.0829,0.00060872,0.00042831,0.00076886,0.00044255,3.859e-06
0.285,0.00098526,0.083969,0.91363,47.861,0.52947,2.6608,0.4063,1.1769,0.59129,67.064,1.9341,0.00083121,0.00029687,0.0001405,0.00013235,0.00056026
0.2855,0.00085294,0.083969,0.90413,47.248,0.49962,2.3919,0.41586,1.175,0.58558,63.93,1.9532,0.00084452,0.00032015,0.00069241,0.00023309,0.00017821
0.286,0.00044762,0.082063,0.87168,45.898,0.50523,2.3423,0.372,1.175,0.61228,61.634,1.9208,9.4906e-06,0.0004352,1.6426e-05,0.00029317,0.00026516
0.2865,0.00058107,0.082065,0.89265,49.411,0.54708,2.4262,0.34909,1.2322,0.65042,67.182,2.018,0.00070452,0.00067172,0.00035402,0.00052126,0.00099019
0.287,0.0008478,0.080162,0.93654,48.298,0.54405,2.7028,0.41392,1.2494,0.65615,67.265,1.9799,0.00013584,0.00078973,0.00096316,0.0008359,0.00090815
0.2875,0.00056497,0.074436,0.9823,46.107,0.55157,2.7161,0.3796,1.2665,0.66569,63.364,2.0085,0.00022351,0.00016586,7.3419e-05,0.00023829,3.439e-05
0.288,0.00031146,0.06872,0.96323,47.279,0.51028,2.8287,0.40059,1.2017,0.6428,63.276,1.8788,0.00068336,0.00088337,0.00061571,0.00020655,1.8566e-05
0.2885,0.0005397,0.066812,0.9976,50.252,0.53396,2.8668,0.37578,1.2303,0.65043,66.255,1.9265,0.00096184,0.00075799,0.00044629,0.00056595,0.00014931
0.289,0.00068437,0.064901,0.9709,51.132,0.50849,2.9221,0.39102,1.2226,0.63517,69.029,1.915,9.9373e-06,0.00010904,0.00067356,0.00028713,0.00028971
0.2895,0.00026202,0.061084,0.95564,47.801,0.51735,2.8001,0.38911,1.2303,0.67141,64.941,1.9189,0.00041446,0.00079249,0.00098364,3.6231e-05,0.0006194
0.29,0.00025215,0.062993,0.95185,46.937,0.51488,2.7028,0.44062,1.215,0.6676,63.123,1.9112,0.0007005,0.00074334,0.00028039,0.00054876,8.0496e-05
0.2905,0.00095951,0.064899,1.0529,49.087,0.59813,2.884,0.44442,1.2875,0.70574,64.014,2.0428,0.00014928,4.2115e-05,0.00051219,0.0005313,0.00052349
0.291,0.00028991,0.072526,1.1311,52.643,0.59432,2.9336,0.45585,1.3562,0.68858,70.452,2.0829,0.00029507,0.00024279,0.00045697,0.00023883,0.00010817
0.2915,0.00063063,0.080154,1.1235,49.44,0.54484,2.8935,0.47111,1.3028,0.64852,66.545,2.0295,0.00082627,0.00028084,6.3846e-05,5.4232e-05,0.00063804
0.292,0.00037077,0.078244,1.1311,48.288,0.55629,2.7524,0.37194,1.2512,0.62754,63.72,2.0295,0.00039765,0.00061222,0.00038026,0.00041391,1.4101e-05
0.2925,0.00089335,0.083967,1.0777,49.648,0.55315,2.4968,0.3891,1.2055,0.64662,64.115,1.9379,0.00015533,0.00014167,0.0006393,0.00087208,0.00039272
0.293,0.00088551,0.080148,1.0549,51.845,0.54619,2.6055,0.41006,1.2417,0.64471,69.029,2.0123,0.00095722,1.5954e-05,0.00096998,0.00070899,0.00083172
0.2935,3.5688e-05,0.082053,0.969,49.781,0.50344,2.533,0.45204,1.1616,0.58176,67.972,1.8864,7.9913e-05,0.00021271,0.00065152,0.00031191,0.00018755
0.294,0.00084749,0.082055,0.98807,48.427,0.53654,2.617,0.51692,1.1521,0.62754,64.037,1.9608,0.00083939,0.00084355,0.00030697,0.00051086,0.0002189
0.2945,0.00080486,0.093506,0.9709,49.129,0.52958,2.6837,0.58559,1.1254,0.62182,64.663,1.9551,0.00082165,0.00037724,0.00016551,0.0009303,0.00052903
0.295,0.00062377,0.10304,1.0128,53.039,0.5638,2.8439,0.54362,1.2684,0.71718,71.102,2.1668,0.00017889,0.00034711,0.00072456,0.00084281,0.00035398
0.2955,0.00055923,0.10876,1.0014,51.054,0.49907,2.7734,0.56459,1.2246,0.70193,70.429,2.0791,0.00021144,0.00098646,0.0002524,0.00058862,0.00090778
0.296,0.00050989,0.10494,0.9747,48.414,0.5417,2.842,0.62562,1.2093,0.73054,64.275,2.1268,0.00060722,0.00058092,0.00059243,0.00080553,0.00017401
0.2965,0.00032974,0.10685,0.90983,48.353,0.54294,2.6913,0.63135,1.1578,0.73245,63.724,2.0066,0.0006171,0.00022499,0.0007873,0.00048018,0.0006037
0.297,0.00052635,0.10494,0.8927,52.953,0.51253,2.9469,0.70191,1.2208,0.75534,70.269,2.0466,0.00053886,0.0003274,0.00073402,0.00050276,0.00028276
0.2975,2.8708e-05,0.099222,0.89651,51.126,0.49279,3.0099,0.72861,1.2341,0.74771,69.47,2.0657,0.00080663,0.00024182,0.00088521,0.00042559,0.00030431
0.298,0.00026495,0.097314,0.87359,47.883,0.52251,2.7543,0.71145,1.1902,0.71146,64.518,2.018,0.00041466,0.00025927,0.00031563,0.00013084,0.00061964
0.2985,0.00053793,0.093506,0.89077,46.321,0.53586,2.6017,0.74388,1.2112,0.72291,61.96,2.0638,0.0008258,6.9104e-05,0.00054274,0.00016629,0.00061507
0.299,0.00083077,0.095409,0.9556,50.189,0.56054,2.6933,0.7248,1.3028,0.72672,67.098,2.1458,0.00078467,0.00010616,0.00057783,0.00060866,0.00039123
0.2995,0.00016276,0.085872,1.0033,49.072,0.55415,2.6608,0.64088,1.3771,0.75152,66.99,2.2088,0.00070049,0.00039013,3.944e-05,0.00013536,0.00092733
0.3,0.0007709,0.074428,1.0167,46.159,0.53272,2.5483,0.62371,1.3142,0.66951,62.29,2.102,0.000776,0.00046693,0.00068601,0.00097358,0.0007596
0.3005,0.00016609,0.072528,1.0071,46.838,0.54417,2.493,0.64661,1.3695,0.66188,62.561,2.1134,0.0001379,0.00048025,0.00089048,6.2519e-05,0.00014177
0.301,0.00048702,0.070621,0.94037,49.27,0.50411,2.4663,0.60655,1.3276,0.62373,65.551,1.9761,0.00021353,3.1269e-05,0.00020911,5.3093e-05,0.00074377
0.3015,0.00094867,0.062995,1.0243,50.453,0.51691,2.5178,0.5932,1.3962,0.62183,68.337,2.1229,0.00029721,0.00069434,0.00086765,0.00048988,0.00052495
0.302,0.00056914,0.068715,0.98425,46.857,0.51039,2.3785,0.54935,1.3142,0.5913,64.22,2.0371,0.00050084,0.00026697,0.00014061,0.0005231,0.00049947
0.3025,0.00014262,0.070625,0.98041,46.523,0.52879,2.4968,0.55318,1.3447,0.58558,62.305,2.081,0.00099649,0.00017313,0.00084655,0.00058002,1.8355e-05
0.303,0.00085588,0.070627,0.96899,48.673,0.515,2.5864,0.54937,1.3104,0.58939,62.799,2.0085,0.00019024,0.0006238,6.2559e-05,0.00046175,1.0349e-05
0.3035,0.00076716,0.06872,1.0796,51.626,0.56392,2.7715,0.49023,1.4477,0.65805,69.317,2.1992,0.00098165,0.00065891,0.00089888,0.00067046,0.0006163
0.304,0.00024987,0.064909,1.0319,48.704,0.54743,2.6494,0.43681,1.4115,0.64661,65.428,2.1363,0.00020342,8.3664e-05,5.6853e-05,2.6645e-05,4.6266e-05
0.3045,0.0002508,0.070629,1.0529,47.53,0.55259,2.6036,0.42536,1.4077,0.64852,62.418,2.1401,0.00085527,5.6742e-05,5.5882e-05,0.00049161,0.00057215
0.305,0.00044495,0.066816,0.96902,49.03,0.52454,2.5254,0.41201,1.3409,0.6428,63.007,2.0219,4.8147e-05,0.00064807,0.00073337,0.0001055,0.0005699
0.3055,0.00087805,0.066818,0.93088,51.572,0.53284,2.6971,0.3891,1.318,0.65806,67.932,1.9951,0.00087438,0.00065426,0.00028226,0.00036008,0.00049475
0.306,0.00011379,0.070633,0.98048,49.762,0.53991,2.6227,0.39865,1.3371,0.6409,67.459,2.0619,0.0003001,0.00010826,0.00055721,9.1476e-05,0.0003821
0.3065,0.00065842,0.06682,0.95754,47.925,0.55875,2.6265,0.41393,1.339,0.67332,63.533,2.0009,0.00058891,0.00022889,0.00070438,0.00029621,0.00035785
0.307,0.00061438,0.068722,0.99951,49.617,0.58355,2.5063,0.42156,1.381,0.70384,64.624,2.0848,0.00059588,0.00098,0.00071876,6.4065e-05,7.3501e-05
0.3075,0.00079122,0.064907,1.0415,53.096,0.58478,2.5445,0.38913,1.3466,0.71528,70.866,2.0638,0.00092086,2.0054e-05,0.00042024,0.00057411,0.0009394
0.308,0.00085731,0.080158,1.0529,51.038,0.58208,2.6303,0.37006,1.3771,0.721,70.232,2.1649,1.3978e-06,0.00012778,0.00034389,0.0006863,0.00070496
0.3085,0.00086127,0.087788,0.97474,48.764,0.55359,2.575,0.37387,1.2875,0.67904,64.651,2.0505,0.00015062,0.00078952,0.00085966,0.00018046,0.00068608
0.309,0.00071496,0.093506,0.98237,48.211,0.55808,2.4892,0.41774,1.3085,0.72864,64.478,2.081,0.00029476,0.00011944,0.00022396,0.00065481,0.00050624
0.3095,0.00035654,0.087783,0.93657,52.749,0.55415,2.6608,0.45968,1.2341,0.68095,71.201,1.9837,0.00064126,0.00097953,0.0006145,0.00058389,0.00096528
0.31,0.00039558,0.091598,0.98424,51.176,0.58792,2.7696,0.52833,1.3009,0.72292,70.362,2.1554,3.45e-05,0.00010753,0.00087448,0.00075859,0.00033532
0.3105,0.00028002,0.085876,0.99567,47.66,0.55605,2.6246,0.5131,1.2436,0.67332,64.644,2.1077,0.00037746,0.00043679,0.00021651,0.00014233,0.00047159
0.311,0.0008596,0.085878,0.94987,46.134,0.54819,2.657,0.51884,1.1997,0.72291,61.637,2.0753,0.0007097,0.00039148,0.00090886,0.0003905,0.00083746
0.3115,0.00024426,0.091596,0.91557,50.155,0.53249,2.8325,0.46924,1.1368,0.69239,67.175,2.0314,0.00043495,0.00010589,0.00074324,0.00072411,0.00015305
0.312,0.00097081,0.085876,1.0128,48.757,0.60048,2.8573,0.43871,1.2207,0.73245,66.898,2.1496,0.00098835,0.0006737,0.00034535,0.00030687,0.00060433
0.3125,0.00020808,0.091598,0.99947,45.783,0.60565,2.6246,0.41772,1.2703,0.72291,62.906,2.1954,5.0041e-05,0.00077825,0.00047012,0.00073175,0.00061029
0.313,0.00033717,0.082063,1.0281,46.607,0.59185,2.5159,0.45397,1.2761,0.7458,62.889,2.1516,0.00071208,0.00097163,0.0002188,0.00082772,0.00041106
0.3135,0.00035819,0.074434,0.99568,49.131,0.57974,2.596,0.44825,1.2284,0.73054,65.159,2.0428,0.00066898,0.00036837,0.00028377,0.00069601,0.00017357
0.314,0.00083027,0.07253,0.97851,49.774,0.57334,2.6475,0.40819,1.1883,0.68667,68.077,1.9417,0.00015529,0.00059826,0.00095369,0.0004104,0.00067717
0.3145,0.00059817,0.076343,0.97663,46.323,0.56324,2.5006,0.351,1.2513,0.70574,63.442,1.9932,0.00031498,0.00053186,0.00075798,9.3834e-05,0.00062908
0.315,0.00034703,0.082059,1.0281,45.673,0.58343,2.3976,0.36628,1.2665,0.66187,61.754,1.9818,0.0001251,0.00096186,0.00064681,0.00011233,8.0545e-05
0.3155,0.0002776,0.085876,1.0605,47.174,0.62158,2.4415,0.38535,1.3161,0.69811,62.801,2.0276,0.00032929,0.00083653,0.00044796,0.00090527,0.00048111
0.316,0.0006393,0.089693,1.0358,51.374,0.618,2.4148,0.38153,1.3047,0.63517,69.605,1.9608,0.00097202,0.00029678,0.00061696,0.00018222,0.00046927
0.3165,0.00038753,0.085878,1.0395,48.032,0.60958,2.4052,0.39869,1.3428,0.62754,65.821,2.0161,0.00010099,0.00074998,0.00045024,8.6026e-05,0.00062839
0.317,4.7382e-05,0.091596,0.95562,46.724,0.56706,2.3957,0.41968,1.3028,0.61991,62.641,1.9284,0.00085283,0.00023192,3.4534e-05,0.00043788,0.00039572
0.3175,0.00035806,0.0935,0.95182,48.827,0.55371,2.5368,0.47308,1.2665,0.63135,63.223,1.896,4.6492e-05,0.00062531,0.00033528,0.00076126,7.9038e-05
0.318,0.00064707,0.087783,0.92889,50.445,0.55796,2.7142,0.49785,1.2379,0.61991,68.39,1.833,0.00060816,0.00068829,0.00074922,0.00094092,0.00063779
0.3185,0.00047171,0.093504,0.96513,48.885,0.56627,2.6189,0.51884,1.3199,0.68095,67.48,2.0009,0.0005894,0.00076811,0.00076258,0.00016958,0.00049416
0.319,0.00070283,0.087783,0.95561,47.607,0.54787,2.6208,0.51502,1.3218,0.67713,63.308,2.0314,0.00061086,0.00051896,0.00083852,0.00013946,0.00087187
0.3195,0.00085311,0.07825,0.91172,49.554,0.53575,2.533,0.53982,1.2226,0.66568,64.687,1.9265,0.00080098,0.00057601,0.00079731,0.0001515,0.00086268
0.32,0.0009886,0.072532,0.8469,52.9,0.5187,2.7409,0.47495,1.1712,0.65424,70.805,1.833,7.5538e-05,0.00035172,0.00061476,0.00070013,0.00058353
0.3205,4.2951e-05,0.087785,0.86407,51.75,0.53586,2.7047,0.42535,1.1731,0.65233,70.727,1.8635,0.00077002,0.0001749,0.00018762,0.0001807,0.00087711
0.321,0.00038678,0.087777,0.92508,48.368,0.60879,2.5922,0.41201,1.2398,0.69048,65.187,1.9723,0.00043587,0.00073906,0.00042737,8.8142e-05,0.00077124
0.3215,0.00056298,0.097312,0.93464,48.963,0.60958,2.3404,0.39866,1.2589,0.70574,65.574,1.9608,0.00016396,0.00049427,0.00015904,8.6425e-05,0.00060514
0.322,0.00032474,0.093502,0.92319,53.312,0.56952,2.4396,0.40437,1.2532,0.68476,71.52,1.9589,0.00088891,0.00085769,0.00045639,0.00021921,0.00093792
0.3225,0.00066078,0.089687,0.8793,50.872,0.56368,2.5082,0.36242,1.2093,0.64852,70.191,1.8674,0.00035331,0.00039394,0.00093688,0.00077354,0.00023115
0.323,0.00083926,0.091596,0.8946,48.415,0.59499,2.3766,0.30522,1.278,0.66378,64.947,1.9761,6.4734e-05,0.00027119,0.00061131,0.00062449,0.00048707
0.3235,0.0002868,0.0935,0.88696,46.632,0.60127,2.245,0.3224,1.2475,0.618,62.534,1.9475,0.0007896,0.00086753,0.00059546,0.00050531,0.00011258
0.324,0.00012079,0.095403,0.91937,50.939,0.62349,2.3671,0.30523,1.2303,0.59129,68.412,1.9589,0.00027959,0.00095947,0.00076954,0.00080379,0.00044708
0.3245,0.00086104,0.10112,0.97089,49.436,0.63628,2.4682,0.33954,1.2474,0.60274,67.818,2.0257,0.0008853,0.00043111,0.00063644,0.00083236,0.00096565
0.325,0.00041218,0.10494,1.0033,46.582,0.6337,2.3804,0.33002,1.2684,0.66759,63.457,2.0829,0.00046503,0.00032047,0.00024729,0.00044855,0.0002713
0.3255,0.00028096,0.095395,0.98801,46.954,0.61586,2.39,0.3758,1.2531,0.67712,62.656,2.1058,0.0004389,0.00064893,0.00063595,0.00087002,0.000621
0.326,0.00070578,0.095401,0.95752,49.285,0.54675,2.5941,0.39676,1.2017,0.67522,64.912,2.0333,0.00040242,0.0005082,7.3491e-05,0.00040802,0.00055748
0.3265,0.00079842,0.089681,0.99374,50.67,0.5638,2.6761,0.42535,1.1845,0.67713,68.251,2.0276,0.00014401,0.0009153,0.00065314,0.00016161,0.00040961
0.327,0.00038957,0.089685,1.0205,46.213,0.61149,2.575,0.40819,1.1845,0.66568,63.341,2.0314,0.0003977,0.0002767,0.00079315,0.00087629,0.00061478
0.3275,0.00048405,0.091596,1.072,46.151,0.63326,2.5845,0.41011,1.2227,0.66569,61.849,2.1096,0.00030754,0.00062993,0.00016774,0.00078878,0.0005137
0.328,0.0001192,0.097318,1.0262,47.416,0.59623,2.6551,0.4311,1.1425,0.60656,62.238,1.9951,0.00020952,2.446e-05,0.00033208,0.00035297,0.00094714
0.3285,5.0118e-05,0.0916,1.0071,51.828,0.59432,2.7962,0.37196,1.1196,0.61419,68.836,1.9341,0.00061088,2.9748e-05,0.00098909,0.00034771,0.00071452
0.329,0.00023639,0.09351,0.94228,48.009,0.57592,2.6875,0.38723,1.1158,0.63326,64.352,1.896,0.00011251,0.00020412,0.00096573,0.00011183,0.00063282
0.3295,0.00013877,0.093514,0.9537,46.211,0.59679,2.6093,0.37199,1.2093,0.67713,61.397,2.0085,0.00085006,0.0005862,0.00049117,0.00048264,0.00014176
0.33,0.00017027,0.089697,0.93845,48.269,0.64447,2.5063,0.38534,1.2551,0.67332,62.072,2.0505,0.00014398,0.00032313,0.00099742,0.00072058,0.0007079
0.3305,0.00030019,0.080164,0.92131,50.825,0.63505,2.5902,0.39867,1.2741,0.68095,67.665,2.0371,0.00075035,0.0007245,0.00038102,3.0908e-05,0.00053407
0.331,0.00013138,0.08016,0.87932,49.394,0.62405,2.5597,0.38532,1.2207,0.64852,66.866,1.9417,0.00068722,0.00064233,0.00015968,0.00078076,0.00038626
0.3315,4.1434e-05,0.07444,0.80686,46.51,0.60823,2.5464,0.37389,1.2226,0.61801,61.529,1.9551,0.00080683,0.00066065,0.0001459,0.00081065,0.0008206
0.332,0.00036109,0.076343,0.80307,49.663,0.60386,2.3919,0.38724,1.2284,0.65234,64.247,1.9684,0.00098271,0.00081493,0.00019061,0.00025745,0.00080719
0.3325,0.00015834,0.080158,0.74965,52.314,0.58657,2.4148,0.38341,1.1959,0.65424,70.522,1.9055,0.0002671,0.0009005,0.00093782,7.8544e-06,0.00017813
0.333,0.00045119,0.074432,0.80688,51.017,0.58995,2.2565,0.38722,1.2303,0.68667,70.187,2.0085,0.00075871,0.00073224,0.00043721,0.00060369,7.8649e-05
0.3335,0.00087933,0.078244,0.84311,47.548,0.6116,2.3251,0.41773,1.2894,0.68857,64.001,2.0772,0.00049879,0.00061415,2.1904e-05,0.00067972,0.00027939
0.334,0.00033074,0.08015,0.8965,47.548,0.57783,2.2946,0.42536,1.3123,0.68667,63.598,2.1306,0.00070216,0.00025586,9.0249e-05,0.00087535,5.0569e-05
0.3345,0.00023166,0.080142,0.83739,52.184,0.54552,2.5998,0.43679,1.2494,0.62182,70.091,1.9856,0.00037074,0.00036131,0.00068093,0.00088763,9.6365e-05
0.335,0.00096469,0.08014,0.86982,50.211,0.51309,2.5597,0.48255,1.2093,0.57032,69.773,1.9723,0.0004295,0.00097658,0.00030608,0.00024162,0.00051828
0.3355,0.00078334,0.083958,0.81639,47.559,0.48055,2.3938,0.47301,1.1406,0.52264,66.663,1.8578,0.00064157,0.00067599,0.00073397,0.00039365,0.00073074
0.336,0.00090285,0.076335,0.93659,47.702,0.48078,2.1821,0.44251,1.2284,0.52836,67.234,2.0047,5.2161e-05,0.00055461,0.00080289,0.00070121,0.00072641
0.3365,0.0005885,0.07824,0.95565,51.881,0.46866,2.2927,0.42916,1.2017,0.53217,72.263,1.9494,0.00025743,0.00066713,0.0002261,0.00013287,0.00090055
0.337,9.9882e-05,0.074432,0.92319,48.288,0.43421,2.5445,0.41963,1.1597,0.48258,68.512,1.875,7.7548e-05,0.00012293,0.00079157,0.00065969,0.00039465
0.3375,0.00085644,0.068709,0.95946,48.369,0.42917,2.3709,0.4597,1.154,0.47686,68.006,1.8445,0.00051115,0.00041092,2.3632e-05,2.4804e-05,0.00094731
0.338,0.00028133,0.068715,1.0243,48.646,0.46394,2.409,0.52074,1.2436,0.52454,68.51,1.9417,0.00037947,0.0002223,0.00090669,6.1934e-05,0.00043553
0.3385,0.00076782,0.070623,1.0491,51.654,0.4461,2.3499,0.49022,1.2589,0.5646,72.235,1.9684,0.00043391,0.00043356,0.00085114,0.00063025,0.00049837
0.339,0.00012579,0.070623,1.0358,56.207,0.48122,2.3461,0.53217,1.2379,0.57223,78.348,1.9398,0.00078083,3.2243e-05,4.8358e-05,0.0002538,0.00072823
0.3395,0.00036051,0.074438,1.0319,50.716,0.4875,2.1058,0.48639,1.1978,0.57414,69.666,1.9227,0.00028612,0.00021689,0.00085338,0.00048685,0.00026129
0.34,0.00035863,0.074438,0.9747,54.763,0.44677,2.2393,0.44445,1.1635,0.58558,69.113,1.8597,0.00057178,9.9689e-05,0.00099879,5.2519e-05,5.1426e-05
0.3405,0.00042062,0.08015,1.0014,55.533,0.4635,2.329,0.4025,1.2074,0.60275,68.215,1.9589,0.00028263,0.00018448,0.00044711,0.00047879,0.000482
0.341,0.0003794,0.085872,0.91938,65.143,0.46585,2.4796,0.41012,1.1483,0.63517,80.888,1.8921,0.00069092,0.00023761,0.0002017,0.00065444,0.00087868
0.3415,0.00035962,0.095409,0.96516,61.111,0.49199,2.4682,0.4349,1.1941,0.63326,75.87,1.957,0.00054249,0.00029012,0.00081287,0.00060067,0.00015448
0.342,3.5897e-05,0.10304,0.99568,65.038,0.50984,2.3213,0.48641,1.2284,0.63708,77.697,1.9818,0.00066637,0.00052808,0.00075209,0.00075489,0.00036504
0.3425,0.00026815,0.10304,1.0071,62.601,0.54091,2.3747,0.45017,1.2913,0.65043,70.624,2.142,6.2525e-05,0.00078792,0.00086163,0.00017994,0.00062652
0.343,0.00026025,0.10303,0.9804,64.634,0.55371,2.4892,0.37958,1.2532,0.61037,76.454,2.0772,0.00018809,0.00052044,0.00094872,0.00047168,0.00066222
0.3435,0.00072265,0.10113,1.0128,63.732,0.56269,2.5597,0.42152,1.2608,0.58558,75.849,2.0829,0.00086722,3.0489e-05,9.1047e-05,0.00057142,0.00059293
0.344,0.0004039,0.10685,0.97849,58.934,0.55426,2.4834,0.36812,1.2036,0.55125,69.978,1.9589,0.00026606,0.0003062,0.00096759,0.00061187,0.00048478
0.3445,0.00045464,0.099228,1.0338,67.37,0.58871,2.493,0.36051,1.3047,0.5646,80.888,2.1115,0.00067187,0.00031774,0.00082691,0.00045624,0.00044161
0.345,0.00051222,0.10114,1.0319,63.979,0.61104,2.5597,0.36431,1.318,0.55697,81.767,2.1268,0.00014566,0.00032267,0.00041898,0.00064388,6.8476e-05
0.3455,0.0002554,0.087798,1.0586,65.926,0.61844,2.4987,0.3853,1.2951,0.57413,82.49,2.0676,0.00083012,0.00078262,0.00047857,0.00052284,7.78e-05
0.346,0.00082946,0.082071,1.0948,58.162,0.63763,2.4434,0.39675,1.3466,0.60084,71.52,2.1172,0.00097013,0.00076785,0.00091412,0.0002489,3.7784e-05
0.3465,0.00070742,0.082073,1.1044,64.115,0.67701,2.3575,0.40057,1.4038,0.65043,77.684,2.2164,0.00024636,0.00047474,0.00027735,0.00076222,2.3203e-05
0.347,0.00020476,0.080154,1.1444,64.164,0.7036,2.5216,0.36049,1.4553,0.68666,81.345,2.2946,0.00025302,0.00075777,0.00018031,0.00067942,9.7387e-07
0.3475,0.00092939,0.083963,1.0815,63.58,0.65726,2.6208,0.35475,1.4,0.67332,83.302,2.1973,0.00098953,0.00061981,0.00087107,0.0008104,0.00027435
0.348,0.00070771,0.08587,1.03,62.399,0.63696,2.4834,0.32997,1.3581,0.67904,78.872,2.1363,0.00052569,0.00060067,0.00019868,0.00093331,0.0006199
0.3485,0.00099381,0.087771,0.94034,59.967,0.60767,2.3137,0.32999,1.2589,0.63518,76.414,1.9875,0.00098361,0.00057362,0.00025209,0.00038519,0.00015225
0.349,0.00013669,0.087771,1.0338,64.278,0.64987,2.5597,0.36053,1.3466,0.65997,80.972,2.1554,0.0004538,0.0008033,0.00090522,0.00050439,0.00083396
0.3495,0.0005357,0.089675,1.0052,58.827,0.62495,2.5216,0.37388,1.3028,0.63327,75.453,2.0352,0.0008972,0.00085102,0.00013198,0.00016596,0.00061127
0.35,0.0007091,0.091578,1.0853,57.517,0.66557,2.2908,0.39487,1.3867,0.67142,74.207,2.1363,0.00078563,0.00079407,0.00016995,0.00088657,0.0005953
0.3505,0.00055823,0.10493,1.0167,55.28,0.64212,2.3423,0.38534,1.36,0.64853,71.828,2.0848,0.00048273,0.00096905,1.5938e-06,0.0009167,0.00083526
0.351,0.00078842,0.11066,1.0338,54.498,0.63247,2.6417,0.38342,1.4039,0.60466,70.022,2.1725,0.00041875,0.00066263,0.00066153,0.00098497,0.0003368
0.3515,2.4817e-05,0.10685,1.0338,52.957,0.56503,2.6418,0.37006,1.3371,0.56842,69.902,2.0466,0.00025726,0.00020719,0.00018099,0.00070466,0.00038019
0.352,0.00077253,0.099226,0.98617,48.713,0.52521,2.4758,0.37006,1.2837,0.53409,65.18,1.9608,0.00077928,6.0769e-05,2.5604e-05,0.00051339,0.000803
0.3525,0.00019807,0.093512,1.0167,49.4,0.55124,2.3461,0.37579,1.257,0.54171,64.499,1.9417,0.0005947,0.00060597,0.000171,0.00081625,0.00013043
0.353,0.00018173,0.091604,1.0472,49.261,0.55057,2.348,0.40248,1.2875,0.55888,62.887,1.9704,0.00079267,0.00029164,0.00080309,0.00017513,0.00048083
0.3535,0.00076957,0.093516,1.0586,53.848,0.54743,2.4548,0.41771,1.3104,0.58367,69.409,2.0466,0.00099395,0.00099782,0.0002818,0.00010955,5.3031e-05
0.354,0.00058195,0.085892,0.96705,49.167,0.50837,2.3556,0.37765,1.2474,0.58939,63.946,1.9284,0.00044512,0.00016716,0.00034961,0.00059705,0.00086279
0.3545,0.00075375,0.089701,0.96323,47.886,0.51151,2.4758,0.42152,1.2436,0.61609,60.556,1.9856,0.00029888,0.00024484,0.00068018,0.00075189,1.3493e-05
0.355,0.00083426,0.085888,0.94798,49.776,0.4728,2.5597,0.42723,1.1845,0.59702,61.212,1.9551,0.00089713,0.00018635,0.0004256,0.00081538,0.0005218
0.3555,4.5035e-05,0.083971,1.049,50.648,0.51465,2.7657,0.44438,1.2589,0.6199,66.187,2.1134,0.00030914,0.00034295,0.00063106,0.00014641,0.00065327
0.356,0.00090266,0.08396,1.0224,50.526,0.50837,2.5044,0.46155,1.2436,0.61609,66.731,2.0352,0.00034722,0.00086354,0.00037809,9.1477e-05,6.6661e-05
0.3565,0.00031592,0.078236,1.0262,46.228,0.5638,2.6494,0.45012,1.2665,0.65425,62.481,2.0981,0.00091672,0.0006424,0.00081447,0.0006131,0.00087858
0.357,0.00038038,0.08014,0.98421,53.401,0.56873,2.6131,0.47685,1.2036,0.63517,69.656,1.999,0.00062515,0.00030007,0.00027163,0.00044319,0.00056362
0.3575,0.00087542,0.083952,1.0052,54.641,0.59937,2.9946,0.46731,1.2627,0.64853,73.401,2.0543,0.00023882,0.00062526,0.00013074,0.00030549,0.00054568
0.358,0.00088315,0.085858,0.96325,53.758,0.60004,3.0785,0.45016,1.2226,0.63136,73.175,2.0199,0.0005518,0.00068111,0.00092943,0.00069874,0.00034792
0.3585,0.00057231,0.076325,0.99754,49.687,0.64884,3.1129,0.454,1.2512,0.65424,66.852,2.0314,0.00037416,2.0721e-05,0.00071149,0.00088975,0.00079017
0.359,0.00034865,0.08014,1.0395,49.544,0.64896,2.9851,0.46927,1.2646,0.65425,67.121,2.0753,0.00032865,2.6561e-05,0.00022794,0.00049599,0.00066845
0.3595,0.00060584,0.082055,1.1196,54.124,0.65794,3.0118,0.45018,1.2989,0.68477,74.18,2.1706,0.00032148,0.00076465,0.00092602,0.00063324,0.0004948
0.36,6.8019e-05,0.087777,1.0529,53.068,0.66478,2.9908,0.44255,1.2913,0.68095,74.452,2.0867,0.00079379,4.8705e-06,0.00033485,0.00064123,0.000766
0.3605,0.00081535,0.080156,1.0129,50.71,0.6695,2.76,0.44064,1.278,0.68095,69.072,2.0276,0.00057892,0.00080934,0.00045469,0.00079888,0.0005449
0.361,2.5951e-05,0.078255,1.0128,47.654,0.70574,2.7352,0.4273,1.2455,0.72101,65.248,2.0219,0.0008937,0.00068804,0.00051305,0.00042974,0.00016753
0.3615,0.00060629,0.082065,0.97659,51.811,0.65412,2.7714,0.44064,1.1902,0.68095,68.958,1.9551,4.0675e-05,0.00056593,0.0002377,0.00028308,0.00059952
0.362,0.00051727,0.08588,1.0014,47.783,0.6428,2.8306,0.45397,1.2303,0.68858,65.105,2.0543,0.00016994,0.00010117,0.00067471,0.00089536,0.00017267
0.3625,0.00084647,0.0916,0.99948,45.221,0.62742,2.4872,0.46731,1.1978,0.65424,60.632,1.9875,0.0001991,0.0007326,0.00070017,0.00029264,0.00084291
0.363,0.00050276,0.095421,1.0777,46.301,0.65019,2.4109,0.51882,1.257,0.66377,60.367,2.0848,0.00010746,0.00069195,6.1315e-05,0.0009965,0.00033997
0.3635,0.00028794,0.10496,1.0682,48.101,0.60576,2.4873,0.48257,1.236,0.62753,61.968,2.081,0.0002371,8.7513e-06,0.00051588,0.00044918,1.1981e-05
0.364,0.00076949,0.10114,1.0853,52.002,0.62349,2.5559,0.49399,1.278,0.64851,68.133,2.1725,0.00054111,0.00060366,0.00095834,0.00077343,0.00067014
0.3645,0.00097862,0.099232,1.0262,46.602,0.62349,2.3633,0.46729,1.2512,0.61037,61.661,2.0905,0.0009755,0.00098795,0.00097745,0.00045128,0.00085831
0.365,0.00015244,0.091604,1.072,46.354,0.63258,2.4052,0.45204,1.2341,0.62563,59.597,2.1153,0.00017603,0.00034741,0.00085827,0.0008216,0.0008288
0.3655,0.00095438,0.093508,1.0395,48.219,0.60318,2.4358,0.43107,1.1807,0.61228,60.428,2.0371,6.3073e-05,0.00078891,0.00053686,0.0002905,0.00051194
0.366,0.00033124,0.097325,1.0796,52.49,0.59106,2.5025,0.43487,1.2055,0.61228,68.281,2.0524,0.00022616,0.00076893,8.1246e-05,0.00081789,0.00047679
0.3665,0.00094968,0.10114,1.0643,48.87,0.59118,2.4949,0.42727,1.2074,0.60656,63.982,2.0085,0.00099113,0.00063406,0.00031156,0.00092622,0.00032445
0.367,7.8007e-05,0.10114,1.1101,46.342,0.6107,2.4529,0.40249,1.2989,0.65614,59.789,2.1229,0.00090448,0.00015587,0.00084204,4.0071e-05,0.00033777
0.3675,0.00049716,0.093514,1.1349,50.083,0.6254,2.4415,0.39295,1.3314,0.70574,63.286,2.1897,0.00052726,0.00042899,0.00018962,0.0001181,0.0008413
0.368,0.00039836,0.08588,1.0987,51.082,0.63572,2.4949,0.35098,1.3085,0.68858,68.346,2.121,0.00029924,0.00049897,0.00078589,0.00081483,0.00083824
0.3685,0.00015107,0.082059,1.07,50.052,0.65985,2.4491,0.34144,1.2951,0.69048,68.27,2.0676,3.8719e-05,4.1097e-05,0.00028365,0.00038948,0.00010218
0.369,3.8447e-05,0.087771,1.0567,46.231,0.65738,2.596,0.33764,1.2989,0.68667,61.908,2.018,0.00085362,0.00061996,0.00091807,0.00019789,0.00018329
0.3695,0.00041441,0.089683,1.072,50.49,0.66254,2.5445,0.34909,1.2951,0.71719,66.623,2.0142,0.00067477,0.00037682,0.00030026,0.00031507,0.00040738
0.37,0.00095134,0.091586,1.0433,52.638,0.65603,2.7676,0.3548,1.3142,0.70383,72.004,1.9761,0.00022151,0.00048595,0.00030395,0.00037134,0.00087531
0.3705,0.00044943,0.091584,1.1101,51.692,0.70248,2.842,0.39866,1.3733,0.74198,71.917,2.0943,0.00011849,0.00099878,0.00071003,0.00036945,0.00093588
0.371,0.00082921,0.093483,1.072,48.995,0.68027,2.9012,0.40441,1.3409,0.70765,65.712,2.0352,0.00052356,0.00059495,0.00016396,0.0009785,0.00086189
0.3715,0.0001892,0.09157,1.1025,50.223,0.69979,2.7638,0.45209,1.3943,0.74388,66.48,2.1096,0.00030035,0.00095561,0.00010446,0.00046276,0.00081636
0.372,0.00025144,0.091574,1.0739,54.551,0.72728,2.9946,0.42346,1.3543,0.70383,72.718,2.0619,0.00070413,0.0008476,9.0787e-05,0.00066429,0.00052084
0.3725,4.5753e-05,0.089668,1.0872,51.498,0.70439,2.9393,0.41201,1.3829,0.71337,71.728,2.1439,8.3572e-05,0.00087848,0.00045214,0.00069726,0.00014274
0.373,0.00066649,0.093483,1.0452,49.451,0.65715,2.8687,0.40058,1.3027,0.69811,66.6,2.0695,7.6269e-05,4.9733e-05,0.00094999,0.00073506,0.00063328
0.3735,0.00052698,0.093491,1.0701,47.778,0.6668,2.6875,0.41203,1.3314,0.71146,63.961,2.1134,0.00064846,0.00021258,0.00083164,0.00082017,0.00087848
0.374,0.00046537,0.089687,1.0186,51.976,0.63438,2.7104,0.41203,1.2951,0.69048,68.863,2.0829,0.00018432,0.00033266,0.00094973,5.4827e-05,3.3026e-05
0.3745,0.00072486,0.080148,0.95179,49.184,0.64749,2.863,0.41966,1.2989,0.67713,66.614,2.0276,0.00092991,0.0006412,0.0007277,0.00045244,0.00070131
0.375,0.00098517,0.080154,0.98614,46.674,0.63044,2.657,0.4006,1.3008,0.65806,62.961,2.0619,0.0005147,6.9242e-05,0.0004448,0.00028788,0.00038844
0.3755,0.00061037,0.082067,0.98614,47.265,0.60946,2.5883,0.35864,1.2951,0.63517,63.205,1.9932,0.00055959,0.00019872,0.00035091,0.00087155,7.6893e-05
0.376,0.00026181,0.080168,1.0052,49.527,0.59599,2.6494,0.34146,1.3352,0.67331,65.502,2.0657,0.00015088,0.00037928,0.00088402,0.0004266,0.00098591
0.3765,0.0009135,0.076355,0.9766,49.33,0.61844,2.6799,0.34144,1.3085,0.66378,67.247,2.0695,0.00059,0.00087749,0.00024704,0.00024133,0.00021866
0.377,0.00098741,0.078253,0.9556,46.302,0.59802,2.5922,0.3586,1.2703,0.69239,63.366,2.039,0.00053162,6.9577e-05,0.00023828,0.00068806,0.00045691
0.3775,0.00097595,0.080154,0.89073,46.409,0.59544,2.699,0.36815,1.236,0.63136,61.75,1.9322,0.00023239,0.00092753,0.00073344,5.5664e-06,5.2052e-05
0.378,0.00098414,0.080152,0.95752,48.028,0.58927,2.7219,0.39674,1.3028,0.65615,63.245,2.0276,0.00044315,0.00016046,0.00036367,0.00073237,0.00098285
0.3785,0.00039273,0.080148,0.9537,51.397,0.55561,2.8134,0.41769,1.2856,0.66187,69.126,2.0352,0.00086349,0.00022951,0.00010373,0.00033901,0.00086458
0.379,0.00097667,0.089683,1.0052,48.212,0.58097,2.6093,0.42533,1.3066,0.66187,65.758,2.0638,0.00017785,0.00036646,0.00028593,0.00050354,0.00042897
0.3795,0.00065847,0.097312,1.0319,46.924,0.53912,2.6665,0.45396,1.2646,0.64852,63.032,2.0295,0.00079713,0.00025202,0.00025304,7.2208e-06,0.00073374
0.38,0.00020529,0.10112,1.0281,49.516,0.55931,2.5998,0.4387,1.2589,0.65043,64.148,2.0276,2.3749e-05,0.00086174,0.00050097,0.00021371,0.00068722
0.3805,0.00020847,0.099218,1.009,51.185,0.53126,2.699,0.4368,1.2436,0.66378,68.789,2.0505,0.00095921,0.0007583,0.00031638,0.00080428,0.00065568
0.381,0.00046606,0.095403,1.0205,49.322,0.5454,2.5006,0.42727,1.2207,0.65997,67.631,2.0486,6.9401e-05,0.00090743,0.00012881,0.0003004,0.00080561
0.3815,4.6801e-06,0.095407,1.0624,47.702,0.54843,2.4796,0.41776,1.2608,0.67523,64.018,2.0981,0.0003417,0.00036488,6.5222e-05,0.00043233,0.00066211
0.382,0.00075306,0.09351,1.0643,49.707,0.5408,2.3003,0.40252,1.2322,0.65234,65.616,2.0714,0.00069911,0.00063163,0.00017951,0.00074758,6.9766e-06
0.3825,5.2663e-05,0.099232,1.0643,52.909,0.51802,2.3633,0.4006,1.2246,0.65997,71.396,2.0867,0.00071947,0.00035798,0.00093343,0.00057912,0.00041938
0.383,0.00076652,0.097323,0.97277,51.048,0.53126,2.4548,0.3987,1.1635,0.63517,70.219,1.9742,8.5884e-05,0.00086011,0.00095675,0.00095838,0.00039699
0.3835,1.784e-06,0.10113,0.99947,48.208,0.55852,2.4701,0.3701,1.1559,0.63517,65.126,1.957,0.00034006,0.0004618,0.00011666,0.00048602,8.8784e-05
0.384,0.00050308,0.091592,1.0033,48.372,0.5574,2.5006,0.36057,1.1063,0.64661,64.726,1.9036,0.00049129,0.00053326,0.00012459,0.00099542,0.00013721
0.3845,0.00086926,0.091592,1.0586,52.909,0.58085,2.5807,0.32241,1.1673,0.67522,71.341,2.039,8.1252e-05,0.00059235,0.0007162,0.00011294,0.0004736
0.385,0.00052507,0.089687,1.0891,50.63,0.56829,2.7009,0.37009,1.2188,0.70765,70.223,2.1401,0.00065868,0.00067936,0.00069736,3.4437e-05,0.00070651
0.3855,0.00031951,0.093491,1.0319,47.887,0.56638,2.6551,0.36436,1.2131,0.69239,64.493,2.1363,2.1687e-05,0.00044701,0.00010609,4.5507e-05,0.00045569
0.386,3.0759e-05,0.093487,0.96513,45.772,0.54529,2.6417,0.36626,1.1578,0.6447,61.317,2.0333,0.00085591,0.00015782,0.00045433,0.00088802,0.00094505
0.3865,0.00035141,0.089673,0.95751,49.983,0.52756,2.6723,0.3281,1.154,0.63708,66.746,2.0142,2.9608e-05,0.00035239,6.3341e-05,0.00074998,0.00065554
0.387,0.00065044,0.087759,0.98804,49.413,0.54159,2.7524,0.34334,1.2379,0.66569,66.696,2.0371,0.00040416,0.00040095,0.00020366,0.0009176,0.00049786
0.3875,0.0007411,0.080135,1.009,45.44,0.54843,2.5941,0.36052,1.2093,0.66759,61.317,1.9684,0.0008203,0.00090539,0.00030317,0.00016368,0.00061816
0.388,0.00039599,0.08395,1.0548,46.327,0.51342,2.5445,0.38533,1.2246,0.6428,61.014,1.9799,0.00092121,0.0002573,0.00061108,0.0007841,0.00078926
0.3885,0.00092174,0.082049,1.0052,48.81,0.48862,2.6494,0.37961,1.215,0.60465,63.328,1.9608,6.23e-06,3.1397e-05,0.00088125,0.00049487,0.00069821
0.389,0.00085744,0.080146,1.0128,49.106,0.50051,2.6723,0.38532,1.2856,0.60655,66.542,2.0123,0.00045255,0.00092978,0.0004459,0.00025747,7.234e-05
0.3895,0.00038607,0.074425,0.99947,45.848,0.48795,2.5426,0.40247,1.2989,0.61419,61.706,1.9723,7.9449e-05,0.00039596,0.00059738,0.00087198,0.000516
0.39,0.00099995,0.076333,0.97848,45.833,0.48155,2.5082,0.37768,1.3104,0.64661,60.073,1.9608,0.0004351,0.00035445,0.00052417,0.00012077,0.00064
0.3905,0.00076157,0.070621,0.96703,47.746,0.49872,2.4663,0.40056,1.2818,0.62754,61.95,1.9093,0.00019852,0.00059872,0.00027264,0.00065714,0.00099123
0.391,0.0002133,0.070625,1.0014,51.529,0.51028,2.5635,0.41961,1.3371,0.67141,68.358,1.9684,0.0006725,0.0001645,0.00074028,0.00012951,0.00092492
0.3915,0.00035725,0.080158,0.94801,48.74,0.49502,2.7219,0.41199,1.2684,0.64852,64.567,1.8788,0.00041721,0.00075885,0.00041856,0.00084538,0.0003986
0.392,0.00037198,0.083975,0.90984,45.886,0.49299,2.7104,0.45969,1.1749,0.62754,60.796,1.8159,0.00058431,0.00027736,0.00067616,0.00083115,0.00012341
0.3925,0.00066906,0.089697,0.91369,50.452,0.51218,2.6761,0.46731,1.236,0.6676,63.448,1.896,0.0004598,0.0004688,0.00054513,0.00014364,0.00018986
0.393,0.0005125,0.085886,0.91939,51.437,0.5555,2.7123,0.45395,1.297,0.75152,68.26,2.0447,0.00024463,0.00095173,0.00049588,0.0005124,1.6973e-05
0.3935,0.00033464,0.080164,0.91366,49.921,0.54843,2.5922,0.45586,1.3123,0.77059,67.711,2.1229,0.00084279,0.00025035,0.00017535,0.0001999,0.00096218
0.394,0.00063479,0.080164,0.86791,48.658,0.51679,2.6475,0.42917,1.2722,0.7725,63.278,2.0753,0.00092301,2.0558e-05,0.00039865,0.00030751,9.6436e-05
0.3945,0.0001981,0.082071,0.87553,50.557,0.49827,2.5903,0.42155,1.2589,0.7458,65.782,2.0581,0.00077317,0.00082485,0.00034284,4.0535e-05,0.00027488
0.395,0.00074217,0.082073,0.88887,53.087,0.49637,2.7543,0.4139,1.1998,0.67522,71.539,2.0066,0.00077434,0.00097357,0.00023236,0.0004425,8.3823e-05
0.3955,0.00075165,0.082067,0.95755,51.416,0.50928,2.7314,0.42534,1.2417,0.71528,70.679,2.102,0.00032362,0.00053561,0.00026414,2.2131e-05,0.00061169
0.396,0.00057059,0.087779,0.96134,48.925,0.54035,2.7123,0.41202,1.2036,0.67141,65.643,2.1058,0.00053195,0.00021522,0.00074152,0.00090188,3.413e-05
0.3965,0.00035992,0.083963,0.98041,48.436,0.55875,2.4357,0.42538,1.2131,0.66568,65.292,2.1039,0.00099314,0.00025717,0.00012956,0.0003171,0.00045872
0.397,0.00079529,0.078242,0.95183,52.93,0.52319,2.5235,0.39675,1.2188,0.62563,71.51,2.0829,0.00055745,0.00021321,0.00083475,2.3387e-06,0.00024093
0.3975,0.00058058,0.074423,0.97088,49.451,0.51735,2.6265,0.36432,1.2589,0.64279,70.196,2.1592,0.00037404,0.00070563,0.00059484,0.00089705,0.00011844
0.398,7.3367e-05,0.085866,0.98041,47.704,0.49255,2.4892,0.32426,1.2818,0.61799,65.704,2.1668,0.00075252,0.00046082,0.00067623,2.5421e-05,0.00033437
0.3985,5.4874e-05,0.087771,0.99951,46.531,0.49839,2.4434,0.3414,1.3066,0.63707,64.119,2.1077,0.00050287,0.00021404,0.00092721,0.00098463,0.00048916
0.399,8.6379e-05,0.097304,0.98806,50.437,0.51544,2.4987,0.36619,1.3008,0.59892,68.889,2.0886,0.00086185,4.3368e-06,0.00041289,0.00097322,0.00085181
0.3995,0.00029816,0.10683,0.95376,48.009,0.53205,2.5559,0.39098,1.2798,0.58748,66.381,2.0409,0.00015214,0.00028265,0.00019304,8.1297e-05,0.00056824
0.4,0.00051516,0.10492,0.87751,45.852,0.53654,2.4567,0.39099,1.2799,0.58558,63.068,2.0047,0.00040525,0.00094938,0.00042323,0.00040246,0.00081692
0.4005,0.00039478,0.10683,0.83361,46.38,0.56615,2.4701,0.44633,1.2646,0.54361,62.885,1.9227,0.00034924,0.00015538,0.00017352,2.7503e-05,0.00070476
0.401,0.00065434,0.10875,0.86413,48.961,0.5464,2.5655,0.46541,1.3294,0.57794,66.026,1.9704,0.00094723,0.00053895,0.00025669,0.0002484,0.00057894
0.4015,0.00028121,0.11257,0.89655,51.04,0.528,2.5178,0.47493,1.3695,0.5932,69.956,2.0295,0.00058749,0.00088738,0.0007462,3.2955e-05,0.00081346
0.402,0.00019136,0.11257,0.98616,46.817,0.5381,2.4815,0.45206,1.4401,0.64089,64.293,2.1649,0.00053801,2.7701e-05,2.7132e-05,0.00090844,0.00014611
0.4025,0.0001655,0.11067,0.9194,46.981,0.53631,2.6112,0.46351,1.3619,0.58939,62.502,2.0428,0.000796,0.0004004,0.00070419,0.00012888,0.00059954
0.403,0.00015953,0.095411,0.92324,48.206,0.59106,2.7181,0.49404,1.3276,0.56841,63.026,1.9856,0.00092826,0.00050402,9.7669e-05,0.00020463,9.6669e-05
0.4035,0.00048251,0.10113,0.88316,51.666,0.59858,2.7371,0.47497,1.2875,0.53598,67.986,1.9131,0.00023646,0.00072704,0.00045065,0.00027697,0.00046893
0.404,7.9471e-06,0.10113,0.9404,48.41,0.60004,2.7352,0.47879,1.3428,0.59511,64.827,2.0466,0.0007315,0.00097833,0.00082491,0.00056585,3.6395e-05
0.4045,0.00047911,0.093502,0.92702,47.595,0.57076,2.7047,0.46164,1.3428,0.59511,62.933,2.06,0.00023947,0.00076095,0.00092627,0.00062721,0.00041635
0.405,0.00078268,0.089689,0.9594,49.665,0.57883,2.5216,0.454,1.3428,0.60846,62.597,2.0619,0.00014695,0.00094297,0.00034447,0.00053153,0.00061173
0.4055,0.00045996,0.089685,0.97276,51.876,0.5491,2.6589,0.37006,1.3562,0.62372,68.108,2.0943,0.00050027,0.00061023,0.00052664,0.00020036,0.00021885
0.406,0.00059449,0.087771,0.94988,49.638,0.54663,2.4606,0.36813,1.3256,0.62754,66.515,2.0676,0.00015464,0.00073411,0.00050561,0.00047614,0.00081383
0.4065,0.00054318,0.087763,0.95557,46.787,0.53507,2.5578,0.38912,1.3104,0.64279,61.069,2.0981,2.7875e-05,0.0002797,0.00076596,0.0009155,0.00010655
0.407,0.00011057,0.091582,0.90221,49.06,0.5417,2.4319,0.36431,1.2703,0.62563,63.495,2.0104,0.00036591,0.00085591,0.00090855,0.00081951,6.3554e-05
0.4075,0.00010608,0.091582,0.97279,52.015,0.53082,2.3556,0.37956,1.2875,0.64089,69.962,2.0428,0.00069158,3.0326e-05,0.00078852,0.00090342,5.5433e-05
0.408,0.00013116,0.097304,0.90223,51.01,0.49446,2.3289,0.37765,1.2246,0.60846,69.576,1.9246,0.00062557,0.00014644,0.00073768,0.0008471,0.00042043
0.4085,0.00028112,0.093491,0.92705,47.834,0.47169,2.3213,0.38719,1.2227,0.60847,64.209,2.0104,0.00070172,7.5619e-05,0.00083702,0.00060515,0.00085543
0.409,0.00077883,0.089681,0.9175,48.225,0.44868,2.2469,0.37193,1.1883,0.58176,63.694,1.9398,0.00072045,1.5639e-05,0.00043929,0.00054328,0.00050101
0.4095,7.199e-05,0.091586,0.99377,52.287,0.52105,2.3804,0.34331,1.2532,0.6447,70.19,2.0905,0.0001095,0.00034702,0.00061042,1.9484e-05,0.00058557
0.41,0.00066719,0.091588,0.98617,49.623,0.50344,2.5654,0.37002,1.2474,0.65615,69.584,2.0695,0.00062412,0.0008786,0.00027757,0.00011628,0.00057103
